ecg
0.585657671157468
1.0057140799970592
0.5675474090475489
0.13962632674232967
0.022662418092538175
0.05578618558683029
0.017712919549373513
-0.06990287074670931
-0.016567188773863272
-0.002197011404611252
0.011130474044052964
0.04291486429284993
-0.03443549405484811
-0.09556197256902582
-0.022824318151858564
0.024999749186599248
-0.0015723067633047483
-0.04700849275319008
0.025871736489645372
0.015655262857101962
-0.007859070764292889
0.14102381962983315
-0.07690201790087045
-0.043517029115028194
0.030370551027792
0.0009321146408899094
-0.022695891584055532
-0.04600689410720407
-0.06795326297359089
0.04202767431916533
-0.005736022354080448
0.03953039466794414
-0.07871018267897248
0.060110391744137286
0.030534162925513576
-0.02981446714750229
0.02835697981494106
0.026335857414516623
0.044274057951695735
-0.021233512348306144
-0.05392924790265522
-0.07028322135048405
-0.030242400051125495
-0.08749799379042586
0.03220211575940694
-0.022390554625443055
-0.054128669354160344
0.04430079882460195
0.018034443464286197
-0.005353623026152229
0.0811724863701385
0.03937651560406693
0.0023510885941222318
0.006939744219701585
-0.08249089177535215
-0.0705427665900766
-0.06112569642172955
-0.09244534959663306
-0.02577243026846814
0.10305464156976568
-0.025291023413189853
0.014338930933441475
0.03142221335859521
-0.014338970176959507
0.006138860459954015
-0.01778194575559863
-0.03454490443315053
0.004253201222146606
-0.02010767894114133
-0.034788769398691195
-0.013092918915674387
-0.040040585502377046
0.05983441281949259
0.04368118275620733
0.043416307619630425
-0.015117318825477339
-0.059051661339060146
0.04414937703909359
-0.08617511129712817
0.06524641435456012
0.09811210854005915
0.052391297096943845
0.00048335120284894443
-0.05993030947385967
-0.018987204886323758
-0.019948647703626983
0.016996139423910307
0.010061187384470264
0.07813865572221129
-0.017908839558140502
0.05028268724582572
0.010103120974808878
-0.006608880239746573
0.011182902875091778
0.03371665023843173
-0.08195680685821612
-0.0581256708638503
-0.059482954363157536
0.019307729190748704
0.029057217985470868
-0.05426691108802252
0.02607412248446131
-0.013180442656472217
0.0006446108231611086
0.029875863455716713
-0.02895723869949123
0.03088405791309092
0.10155745046734128
-0.010057647155482555
0.05931603513196071
0.038779109539318776
-0.025177407536666793
0.03973744998568916
-0.022005420061562503
0.058494928288132124
0.07263043013967302
-0.002228094830235485
-0.04144930381951831
0.03255639436801943
-0.00965197385985776
0.0012061954254726876
-0.0057083123340218355
0.06480040004093773
-0.018681010655782534
-0.0067166358488504555
0.06264042286912562
-0.021122498010012643
-0.0243185932425632
0.04031528760642792
0.02795107840565518
-0.06984495653282517
-0.06967661955676395
0.023760934336617186
-0.050135247700304635
0.01823088368541593
-0.034049189977679924
0.06242216008308922
0.019719990193683173
-0.06578573329449972
0.02214459612532235
0.043070228671070354
0.00835828133220049
-0.026724173695543287
0.02376489245159507
0.035732406940988407
0.02684531952634496
-0.003853153962396342
0.046638637072257474
-0.06250913648878441
-0.06350536639025554
-0.014137059110653414
0.08655271355208807
0.08397399571594061
0.07041103380596905
0.10243237800203078
0.41350684285376876
1.024637656337884
0.47006459238661685
0.13772081873893785
0.022265850823393694
0.10333876498447361
0.09331449759422958
-0.03532075554995717
0.006612018162228945
-0.011580717390220844
-0.022578585918638677
0.0019487537912059327
-0.08911069744384803
-0.030302799609240684
0.05638103639421688
-0.1571685963734809
-0.07940490435372599
0.05775377870589263
0.06660498070306767
-0.06486303949068203
0.05813015347065331
0.04971048447948744
0.010592088495268999
-0.010836129197899004
0.044758217230195074
-0.009784116927287128
0.010461177904419201
0.049098087220297966
-0.028807999309793948
-0.016585937240043563
0.0716871654010683
-0.05268280890238343
0.03902742997426891
0.007847073335971419
0.0281980599982669
0.008883262133288706
-0.033539893841286104
-0.09282986177981212
-0.06924809955608469
-0.021016534671600452
0.04267973255256097
0.01985166673416627
0.054638424064758134
0.027433769727349722
-0.0008434474606225754
0.059361591956119876
0.014772042230567512
0.05940875843989332
0.01065647901092197
-0.04350164173267645
0.02328685577470803
-0.0019177683848208692
-0.050681479521739604
0.08091005768416491
0.0005975042950234021
-0.008300247016272319
-0.03756958706176458
-0.049113895094441445
0.004530770382758443
0.06268590240659996
0.041002626670967275
-0.031457205909423386
0.010303853896212642
0.14066768651465086
-0.02165497577198701
0.006359299721037709
0.04374401950519996
-0.017217282998749
-0.0809821188949657
0.10008256867232579
-0.00836088609399521
0.05013543039366619
-0.021873644638174577
0.11554749354862588
0.09044752113254922
-0.010672875218033423
0.006635310447700712
-0.006828995621012363
0.008674055509140143
-0.03272058798509036
-0.013398495679611336
-0.10383119307145142
-0.01854882193087653
-0.029109701550938217
-0.025556082598220384
0.03789627511769711
-0.008888668923730808
0.06799747015765621
-0.024465882373849675
-0.04243950519940837
0.025041434084763937
-0.05227381695476138
-0.004417956884646909
-0.07932894040304508
-0.03428105283849811
0.07048249646821662
0.03377045713180141
-0.028571741806381598
0.018637254044611612
0.01800583657607319
0.04435175758404685
-0.07615511361639281
-0.16649027236216613
-0.0044528029892432945
-0.026274478083179533
0.010306417767070197
0.057643086004048064
0.01995041526318705
0.049109094038684666
0.0011392777062825255
0.001581693782260865
0.047225027676792534
0.04345377590501889
0.057377913301483396
0.010859515536950538
-0.03705966222759178
-0.002923858023402484
0.04207612242088463
0.04406407955416469
-0.01981227396789523
-0.02889615943393536
0.02664637060329399
-0.07355331506846491
-0.05049026826330404
0.007708461482867759
-0.020458436975052594
-0.0026280318707108457
-0.03649308893152622
-0.000514353002613314
0.006861746208087939
0.024526326810996243
-0.02307648272518385
0.07116166316438675
-0.03676250533850416
-0.018140924052418753
0.1119094200782289
-0.08923036334949969
0.03517535411615523
0.0025278206845196723
-0.017010634906115825
0.09486282198414331
-0.04693457950343222
0.06548889396972134
0.013636692311478463
0.010685498901825706
-0.041006369900074495
-0.02580148142541168
-0.05982194064601917
0.04080433916510894
0.0736619370928208
-0.00973425133981755
0.01596708463418898
0.05348790759413015
-0.03579821582960487
-0.00399316269675293
0.04476261563952297
0.05035693931302015
0.03919702461938315
-0.045171201891271814
0.13635353833855351
0.44416953962353606
1.079082033897657
0.42169435718023635
0.12264770185787843
-0.01885634188651309
0.008886422474497674
-0.07141514160764065
-0.047999718060246964
0.028380004736903663
0.013033187736432146
0.046757187235563165
0.0016471844023694473
-0.15284269490487892
0.04104700834417705
0.039183035097575376
0.0917752930070183
-0.001900862880193972
-0.08945051191911599
-0.03587417775739301
0.046940489079196596
0.008377264168243581
0.06915365205251067
0.06333340883463179
-0.0544218304338038
-0.037542123661094114
-0.050091887336506685
0.018114357405452516
-0.08003295678442565
-0.017121428789573883
0.015742428809243973
0.09213089588043488
0.006834972719237631
-0.045616338936426935
-0.0786915315910676
0.03818162898826441
0.0403037606907466
-0.01817991873633464
-0.0341703457488493
-0.037867999092869864
0.027653787634311984
-0.006723518201937575
0.013930789510575742
0.02236557093169449
0.005325526169008961
0.07233278170096834
0.06525450517902354
0.00852801214135658
0.06469087170761936
0.014379673642112548
0.09032846350505477
0.026879731226066957
-0.10229547238466455
0.041937782672651
0.01577906464813226
0.008167874018714919
-0.061448616339140144
0.013033395307376225
0.0825777886794559
0.007016577522023388
-0.012815907050345292
-0.06852668799734786
-0.02898386743191872
0.011594007045099518
0.03299570820856242
-0.04403239045127398
-0.030219159808216097
-0.013894785951648642
-0.03992874723434046
0.033587213459217884
0.012761809596614852
-0.040805475823851516
-0.0024776349103375886
0.04424894185989757
0.021082991498794827
-0.07116753579888334
0.028165818201278593
0.008713602671462572
-0.0035157872373905736
0.010477798352959021
0.03219590919039457
0.021035766079862833
0.04945834991544516
0.019352009029269174
0.12316849731292186
0.02729540817478592
-0.012125219684273112
-0.041015136488754746
0.04298942703324741
-0.010667230160925729
0.013921520183769213
-0.003674801430899167
-0.00665608849197901
-0.0836529362184178
0.026658262023101304
0.010447006055169229
-0.054711856489680966
0.052124775859089825
-0.08248709152189183
0.02231156430521288
0.026004681896375434
0.003770640824448001
0.1423850624907752
0.1423217320735492
-0.04689211311708893
-0.03706282027226349
0.015688215686182602
-0.037950728012105445
0.031290721983284774
0.1379349094410299
0.00904834905127947
0.027836758585889743
-0.06597765675892012
-0.03794688401919185
-0.10060860994788617
-0.013368796974520354
0.06365181910116079
-0.05375119875480647
0.02837263754483927
-0.00976586059144071
0.010778697197227828
0.10643622852357536
0.05862342141269761
-0.00991060813432357
-0.018644438509385405
-0.03663555414562031
0.0939396453526963
0.03818221430416336
0.05031501293175764
-0.02986250229974241
0.009794140421526596
0.00018302213099857237
-0.061351466508094345
-0.056289546970489795
-0.0665067024430231
-0.002683271728659701
-0.07123251536146445
0.09217316259923392
0.0806955690526529
-0.038813050938738845
-0.06491781344124217
0.009568521474526482
0.008047731789332118
-0.013233325243900421
0.038005037116274204
-0.04265685785567736
0.005303808828582674
-0.04314663104921315
-0.047219333723218154
0.03026479175183344
0.0048634035633246045
0.07635448914782657
-0.07291467225659626
0.03270828204524766
0.5629657773585705
0.9692272748651997
0.5053248043209427
0.11572649955301989
-0.01960275330869543
-0.014499546526626307
0.006354831188169705
-0.04092893657368252
-0.01069714076282002
0.046514999108190895
-0.009187735086809671
-0.05813038738308103
0.03164668823872303
0.03334359811396038
-0.022444835526171502
-0.12284900611820196
0.010693063858181029
0.11497547253626571
0.0390322600122506
-0.03658387055500793
-0.09687138712533877
-0.03867045642304692
0.03189969371030024
-0.018432666219997878
0.05296959238889795
-0.05295732673273734
-0.05218972313123474
-0.04114680032756096
0.031924666153228046
-0.0059107935802032024
-0.026967830022160317
0.03977392070919757
0.06317411463570052
-0.08056115268785305
0.051616766987739565
-0.01005668016367092
0.05553816501341035
0.007428981180971045
0.042205298612952906
-0.055808928065979105
-0.04515021379651793
-0.009962353314141036
-0.07726546932637035
-0.05697745560695969
0.05278337589221077
-0.07392563010941593
-0.04618122302863098
-0.01118797623061623
0.0019976369361549813
-0.07391556214687872
-0.02755510190697369
0.0010040184578006455
0.024865888172608114
-0.05140986441227814
-0.06772099119044894
-0.06000710712725931
-0.006295707224207176
-0.02540122795377213
-0.005623588829426444
-0.011413188649410828
-0.015599407675220875
-0.012588222289368074
0.018116965677404635
0.05187858705680294
0.006903400413992622
0.024522148018327607
-0.05536387987725279
0.07038423043574382
0.025757966059696397
0.0768890929142894
-0.012463391704060085
-0.012335640157479193
-0.06658225875293435
0.04190766450745625
-0.0682864249181158
0.009758115745319556
0.05324568031358506
-0.011854374884076514
-0.006501891001619656
0.09786705962525043
-0.12161554237263926
-0.009192946050235322
-0.05433921393483032
0.02654344654904983
0.06303338077412514
-0.057127252413572804
0.029521750196390157
0.016978091066255405
0.04062340244587138
-0.022464118736563756
0.056499920913961645
0.036513157530429316
-0.00011026223404124729
-0.008868625823158153
0.036141950932471655
0.026202521404549622
-0.019170906525269732
-0.09476059265146114
-0.09299369333594203
0.05844473881699366
-0.03770020698183076
-0.05531760383178444
-0.0044796558682742285
0.011522243272982001
-0.03682190192576096
-0.10450130239923079
-0.01802538445381798
-0.05523832996228169
-0.06466925829258646
0.039362305578965084
-0.06790518678134143
0.03269890385958354
0.026006146605195925
-0.003118323881984679
0.062371308086221613
0.0484445067164623
-0.0777754830518605
0.0032365734000170555
-0.006490145102907918
0.060826434479439376
-0.09705538017317647
0.002268004299891637
0.006995182870541442
0.0570129124729176
0.010190333406043611
0.01902805604900937
0.08222367365607602
-0.01616168997185222
0.0031790667593696235
0.023664730829792927
-0.050612812400646745
-0.07339730752038792
0.015793102672481282
0.004028713655678728
0.0921119629386401
-0.01231437413050271
0.021602511723636215
-0.0575430986530932
-0.02622128855468053
0.07999936601040278
-0.06287426220588023
0.03140756523464483
0.06440883403915441
-0.00802901347405175
-0.05390887055986633
0.05678634885903775
0.049305001464544085
-0.0014974047592688148
0.025654564510851376
-0.03072500910308274
-0.03126232196086303
0.00046144046323445023
-0.0009308930073905403
-0.06667125476234546
-0.03202448646342503
-0.06100355790225376
0.041822330679168095
0.023254689650586313
0.12220777736377328
0.3560435179076263
0.9406496826958666
0.516258564984278
0.16279322308167354
0.019801209213598264
0.03364522973158631
0.02771625627691661
0.022655896055488782
-0.0027126993533335593
-0.048658197228364154
0.043713317677294174
0.030191642736434696
0.020492054334555372
0.012476405620475847
-0.03337185657165395
0.05975673339777487
-0.08929521496425658
-0.011782621307072874
0.0570388702456336
-0.005957107121548726
-0.004817624448378165
-0.036803178109637
0.08822889680243812
0.05397605383843712
0.10014172446661347
-0.010461173046290687
-0.059219507396309934
-0.12658179094167138
0.06198046248053997
0.01439533476100757
-0.0005601047879724624
-0.04496005892405423
0.03873684303410653
-0.0007872773132913497
0.004486260052549538
-0.09079257468904114
0.06409703500827596
-0.0113010836982185
-0.01121545637535059
0.004149621112940448
0.034700598753963564
-0.00391794257264395
0.019020899002410382
-0.07514339259957774
-0.006910954014503987
0.009805868449017562
-0.013702134332717279
0.0661127922857157
-0.02399159539388511
0.039120929426204515
-0.004820733499495838
0.030222579115545153
0.056119281095729924
0.03402965123630199
-0.04962231968119024
0.02556878025708797
0.034858692421371566
0.0018186188566715784
-0.00747465393874283
0.04730820637534974
-0.03716036527453292
-0.02484612387345058
0.015275385959108434
0.03484962655587776
-0.01445744671516034
0.06892740055692687
-0.16857873889420974
-0.026880974782087782
-0.024710742832743257
-0.0006447380949168672
0.0048936427523572435
0.08056544991167372
-0.08531033174508712
0.020715767202823577
0.045056708908153754
0.0346207307048258
-0.040427577701565756
0.008686065994789638
0.004631105002861192
-0.011554817820973874
0.049778664701131486
0.09191624333182494
-0.024873894592755453
0.006475398877808149
-0.06290039715165842
-0.005998417765434447
-0.030051087410793632
0.07115544609153689
0.07150332956657524
-0.03654093650773652
-0.011500888282194754
-0.0342881280690038
0.011640240757508302
0.034894187348115696
-0.030567465273460243
-0.024714821187744124
0.07043450882068085
-0.008599643515991668
-0.04737043961663896
0.020634646451972327
-0.03947666185524874
-0.019580692993073832
-0.004619023452737309
-0.023552258007238522
0.0520824205169173
0.042522100179796796
0.01988973875358033
-0.02018420134643012
-0.027357154962370362
0.028233412676064752
0.0014774175072923422
0.056360221272698456
0.00706748596209459
0.008180383859631853
-0.00625139786882533
0.005044573671310886
0.002406454627170594
0.010760028312057643
-0.02641803407683707
-0.05428811377256398
-0.043241056782683376
0.054370969684319585
-0.006931583542551793
-0.021828248736756827
0.03550086805546305
-0.020375146091974133
-0.007285332637651004
-0.03858467103072167
0.02699398110016923
-0.03946988721536659
-0.07915694520990446
0.06477624786406723
-0.02006449693080783
-0.03433817672927543
-0.00038725201168170756
-0.08086846278563331
0.04208576396711746
-0.0557117917636406
-0.030414259823563966
-0.01565791050218426
-0.024935293357411875
-0.01329019558896278
0.038437128016007426
0.06160540003272648
0.07638667393968457
-0.019316574808260482
-0.019340234030104472
-0.034723446230737774
-0.043043019608939116
-0.036950893737439955
-0.10724157816070166
0.056089439296587884
-0.08849985747967659
0.06700317882629865
-0.00817958833473974
-0.04833873161526289
0.006855860863105356
0.5245781090615748
0.9159848587859709
0.4683533938718555
0.14359892494803758
-0.011207277542225723
-0.027914959532899453
-0.004301350904683219
0.05121866737818087
-0.024795373675950874
0.005257710754124376
0.03753887250522864
-0.034344230665026725
-0.030626678521995545
0.016632872788122633
0.006555834735664089
0.06600491691426279
-0.03246000682269374
-0.02356384833699917
-0.015117391770240227
-0.060568275403959565
-0.015785302422757976
0.04489774063193916
-0.04641059999863189
0.019627256203765597
-0.006810552005635161
-0.03342517153762665
-0.02098763969321188
-0.023065667177534197
-0.008581871754414874
-0.004508484431234722
0.009772809431941766
0.06990927801265834
-0.0855676509287428
-0.04711137069837454
0.03963355761438897
0.04491870190203204
0.003052043386906877
-0.03663140402411471
-0.10320509818229498
0.013769590392223436
0.055033871837114036
0.06873026278175533
-0.026291544148257535
0.012108632463906989
0.0013057754923424395
-0.07144761316598731
0.011135467751320403
-0.09864497916690933
-0.013427047373507956
0.04059331634325734
0.05484255501714044
-0.006600269531181567
0.09502204141754175
-0.02218386113380553
-0.06733095647858615
0.04359030018453205
0.00785758505646966
-0.058752902543604026
-0.004015703754777417
-0.017774586736055874
0.0729741589601704
0.037872572078270085
-0.03616646724976722
0.001381583494239197
-0.029286146854580277
0.06865748692188708
-0.028558614223809526
-0.03876029438180521
-0.05317459073021318
0.02946526709842437
0.011009352025305489
-0.03745933148409238
-0.03806936945284539
0.10101238959863144
0.06401624291806891
0.0009652521201921942
0.04368369411949961
-0.019390844023670185
0.0017352444504317697
0.05391522967155965
0.0042966956893397065
-0.056881287535864335
-0.032897762330480376
0.013993960878958812
0.03187151191856454
0.07055053345331537
-0.04529220996961647
0.022627429019317483
-0.04650837370914465
-0.05374779424708871
0.010823407766306931
-0.0573223098435807
-0.007646294476653186
-0.013300091478001291
-0.038816584178525466
0.038568265594090045
-0.01861859924902792
-0.01586806616318509
-0.042935439135693504
0.10935198144190035
-0.032843515591164156
-0.031060174586851858
0.016836143883638178
0.009883144581675744
-0.046864253237802314
-0.13931168167872843
0.03018722301487647
-0.04379913153228166
0.02594404452981479
0.0007919104719048751
0.015179493693917573
-0.011324339401695502
0.035992108671497165
-0.06861492832946314
-0.030575192402203705
-0.07114802020749832
-0.04252301609384458
-0.05211546219214195
0.01668387880226481
-0.10517699352153756
0.01335324642267685
0.07395006560252002
0.03758999527438958
-0.06134660958898015
0.023057004629815085
0.05134304080632847
-0.011751707537428374
0.06946932159566348
0.00933314492686812
0.034706024395245276
-0.030603601839991876
0.01661233355855245
-0.014731696725600658
0.004038614761440905
0.02528167868154161
-0.04278933343936506
-0.0021678138206334924
0.10217836115637667
0.05217427630124936
0.02575594554354642
0.00797739847708165
0.04775109827681867
-0.02572283702098704
0.0343535007037203
-0.052398195421409846
-0.03180394578615043
-0.017185242456681776
0.07340632308841913
0.07166923476728641
0.01682741535832946
-0.02283278425345169
-0.021734238283232052
0.057956127002783846
-0.0009902746565885019
0.030443280789051976
0.023754160986458904
0.2043015295906452
0.4694921213234332
1.013004903597989
0.4500479219508062
0.0886828952681102
0.014728436311597905
0.03368259782328379
-0.05486402592409524
0.028550906098628894
-0.04915555599066962
-0.020016207260483306
0.019825718579459594
-0.08018135211462099
-0.019597116832817188
0.01793712007593455
-0.008068676168292764
-0.008149294026907384
0.04820981743141525
-0.05031403025278234
-0.05531625098216075
-0.05150970787364809
0.04541808433163633
-0.023229280457434713
0.05368239082990811
0.03650326823585368
0.036514237876390965
-0.031991455688101585
-0.02956413332100043
0.12989409487293463
0.06377872657473402
0.08425181606615045
-0.08917029981665862
-0.004289058724213701
0.04837330765554929
0.05201667847213522
0.052326714676719156
0.03396199739813681
0.02118547226968104
0.02668003909777311
0.04013115783667661
-0.014244930337462318
0.06441435749274799
0.04857780657345219
-0.000264444272594103
0.006739382449980848
-0.009975731307913623
-0.044560352876660526
0.021741835877372946
0.07991011159334141
-0.028983640952828005
0.0471295945350366
0.05536707669755179
0.022032227976452767
-0.02731233470564437
0.015106784660245327
-0.055962377517290676
-0.04615025681389459
0.03680103480883227
0.021793224761346375
-0.061219929372901105
-0.07916723883288758
0.07493612597769762
0.01039281289520602
-0.020011759862452627
-0.02401134378201525
0.029056624864750302
0.007585794345836773
0.005076243149548196
-0.1017949885918481
0.08055030960047187
0.06822213503639031
0.011500343170079546
0.055524988137256585
0.10077721899744899
-0.017981025291613894
-0.00358193580937398
0.002030308747195941
-0.05894208833894787
-0.05385382099057867
0.02448737215390047
0.013146846681932348
0.10002249113886713
0.0162957127007845
0.10189050890967433
-0.08943809962818555
-0.034737332806076125
0.006953111537127514
0.05710860128115716
-0.014968182365453268
0.04078108995646896
0.06702967698699136
0.06926254202952066
0.10268076919651065
-0.07436002615279812
-0.020297884561526397
0.10786627141175886
-0.03863819517037228
-0.03003469014977463
-0.0009361308891427169
0.08197652570536217
-0.047817340838804755
-0.06403403976325382
-0.03171429112334312
0.06639890734542953
0.018184524979217295
-0.122341376974873
0.005629689823583361
-0.01122728340845062
0.03447344548212985
0.003252698357048693
0.011518074377496681
-0.002324749408262505
-0.047291881036981336
0.013788466686439039
-0.031447738180682465
0.004405762934960774
0.09469113761570142
-0.03277462335531618
-0.0059915459364250296
-0.006516528247899374
-0.03956810158604055
0.04555670676847846
0.01667665770293462
0.05170305847517609
-0.1107778020998955
0.049298730676211336
0.005869734532094252
0.02164219354457536
-0.008144658613121462
-0.03745932513020559
0.018168166299053965
-0.029207759225771113
-0.0005599231105605511
0.00991203736551139
-0.0025114482702079284
-0.025889809776632106
0.04708988442423199
-0.04724325135545604
-0.05849945655258723
-0.08278182170057016
-0.11017555570165452
-0.009157014571300536
-0.01870757071425359
-0.12450952863039853
0.0023497567087170917
0.03780348659193882
-0.029458357100689538
-0.004540969369299929
0.02217139747864189
-0.03020134973699752
-0.005789578997667791
0.022794537448212034
-0.004169811658953591
0.011213824154988124
0.006318657403617413
0.0261251915864103
-0.07730040906068004
0.008495543133222863
0.02384136048825881
0.11576190716263476
0.5703003248340589
0.9506586444557209
0.48954249482979467
0.18836102084976733
0.04324019085065843
-0.04031670191154694
-0.017427672671875595
-0.036678399627087035
-0.05232091131136503
-0.057927221842393274
-0.008575605855370594
-0.04362365781513279
0.05172097553972255
-0.0022555180922390994
-0.010400998623268713
0.026718472208937173
-0.00148657550021207
0.028017597409932413
-0.007196149361655577
-0.03989381947882946
-0.04134994337310266
-0.1155266864660502
0.02557151947829153
-0.07993640917009949
-0.030826729353965677
0.020187388786750242
-0.0778916016912816
0.01382246968343915
-0.04110004327058855
0.026070380323533943
0.009115229053657203
-0.04484107025002072
0.06743552484010605
0.08658720905672986
-0.0381518690213671
0.00311680906927955
0.018014258013160016
0.0741236833759802
-0.08386301375305336
0.035401871623073906
-0.040118591298645874
-0.01914494500795532
0.010372242537635572
0.02848142347965717
0.04615585152236629
-0.05016224269900774
0.022622578339402902
0.039695755086694574
-0.04540588673378772
-0.03561444619484737
-0.011108302859307612
-0.044556900028221325
-0.013882950507777478
-0.0005533018504460179
0.018695256178827276
0.05297823823528609
-0.03936241821281005
-0.01899009324495414
0.03088999505589138
0.11011386865344788
-0.0011203726622400067
0.01765669053075939
0.011375300743870371
-0.011191822987610314
-0.02710289999916295
0.03712653540465756
0.11708170748813179
0.048149019414226474
0.002813544468845386
-0.013963644451469935
0.017886721807665373
0.004984426562505892
-0.00997287568707722
-0.043263919118121136
0.02332994998418542
0.0879539963252565
0.016714999607699527
-0.051804946447265535
-0.029684355301615086
0.11105690887009814
-0.041641221947060644
0.06047488462149783
-0.04131422098564868
-0.02991757345639582
0.06249318623602682
0.02187889662332583
0.001004115771680699
-0.030342722674632883
0.06393276317911506
-0.03151191603463242
-0.054173876057984294
0.026394115497975736
-0.032136186717929775
-0.012594604135601921
0.07544105171602833
-0.0848630086935844
-0.006258073210831733
0.025493607206691544
-0.0023085099445891797
-0.06791524492304939
-0.03758271233549783
0.04242493986145479
0.02651656532811429
-0.040737607002710535
0.09915033022754688
0.01115994129992179
0.05669477802309535
-0.024383521638374022
0.09258358078597478
-0.04430818263640263
0.05771769756744837
-0.09852439549454971
0.06868421478262553
0.015115696514475653
-0.009408972694270918
-0.013787827583764366
0.003235787216366737
-0.0937143967285214
-0.022774336206646595
0.04938802833346728
0.06240027019474647
-0.052479862574463604
0.06758034895085062
-0.0722487450610415
0.028883459081120978
0.014445250217612901
-0.02517685235943879
0.07974160221915584
-0.014484454486339636
0.07645062751027115
0.009866536992707335
-0.020021501307328743
0.05311488959309627
-0.05192937860353154
0.03193763876086799
0.05023174029106912
-0.04709791595769185
0.01869609156310303
0.039177160431418195
0.048349156470166584
0.018464470845752864
0.04491787106021817
0.04205851648198789
-0.010962125104886929
-0.025006358798111396
0.006438846658812045
0.002188193751684493
0.0013177821796546984
0.05524827275051519
-0.016247685727259834
-0.041145852063011606
0.06622020624979134
0.036028587714188876
-0.014600265495859336
0.030462563727599548
0.5600797242071406
0.9661013110539509
0.44673847760312857
0.18469343402193444
0.049537430630658436
-0.00010069293130072343
0.011616657922915045
0.018274002601450887
-0.013405563814391909
0.04224750493619822
0.07401573557846493
0.04905969315496433
-0.005698572032624544
0.0070485188635417756
-0.040112002731885164
0.03147536836586404
-0.09026261258736216
0.004626614719090907
-0.0453705063592182
-0.037172566610494326
0.0010131342522432469
-0.025610964297763536
-0.018625765239114883
-0.09055379194349766
-0.01031375365818367
0.13668350168691293
0.03913522403525929
0.009188279668374091
-0.00946772999656879
-0.07636234685821697
0.012317881996260313
0.031182400833701426
0.06013380932735345
-0.06587481938843352
0.05341125185653295
0.04357826929404321
-0.11759281077388738
-0.07155954598586334
-0.06817558277092442
0.056000711913919476
-0.0029270730049742524
-0.0029081548480626505
0.07145379797383941
-0.02567480658400967
0.009575473376373104
-0.06378145518290483
0.03556581862411099
0.009099837574606173
0.023745682955048128
0.039213232648612956
0.011658964154970246
-0.02531139038059052
0.07678949895579174
0.07080224021954566
0.011702755253098482
-0.01362147988001429
0.07597154076162672
0.023901219565671306
0.032609101382101956
0.038787949531083714
-0.0044691249668912135
-0.06468627285779668
-0.08155882021595945
-0.04068324165876114
0.04431400337921698
0.033748272604642186
0.03104447935906652
-0.039771654878983945
0.07148642665988339
0.12628455837862515
-0.06969546243518145
-0.016109675078692712
-0.046115876110961566
-0.02552889334918967
-0.038453366286568647
-0.10259905593530756
0.0852701497927911
0.011481562233213467
0.004196157310526134
0.020255480058054113
-0.15610398270824744
-0.023668609359859732
-0.00575628682441697
0.06044903082893967
0.0052368132325405214
0.08432149915285134
0.07775343639189862
-0.05299678044628262
-0.013933089764079832
0.020328834594511375
-0.04348023081279181
-0.031528049500946606
-0.004833527126337309
-0.007305678659997205
-0.04101724382408359
-0.021089110263614128
0.017437614667647015
-0.003672890788421989
-0.05044130250210557
0.08112037003333457
0.14933151345479823
0.04988377378917366
0.0003994991291891165
-0.020332129951115475
-0.004690274957234336
-0.0006338303249897086
-0.0032117796018021868
0.015878803946715793
0.029521072856321547
0.08707361874056924
0.030308097425147514
-0.025951601449881585
-0.042993800376807396
0.011846165768246476
-0.005128178125348999
0.07363835315436493
0.03528931548676088
-0.04304661100265358
-0.01132042625621053
-0.036982609679477474
0.08903054156808385
-0.03833900995963893
-0.06282910790458363
-0.024047134069182553
-0.06474962103865455
-0.06391250306754724
0.024272539632350792
0.003488865759493301
0.11424032382073135
0.1113229587566894
0.011612355577622612
0.04110080786185746
-0.009023237390667255
0.05164111209666547
0.001440451917314045
-0.018970160468550552
-0.03132277134564564
-0.007755701231591166
0.002282282171743687
0.051855015382964866
0.0023330842660265467
-0.05831979962209184
0.07260969105341768
0.0046466439635301044
0.04827690232436088
-0.10294913491345564
-0.06092502766166385
-0.13417726874479016
-0.035534375889209456
0.04223691399598608
0.010737545859981448
0.009221846092022245
0.08089522551826978
0.018195082314713253
0.0010355945437221417
0.02911670467069126
0.5513617375403643
1.1192651850779607
0.40245512493220004
0.11301526835405887
-0.023945024830372884
-0.06763519225460683
-0.03851642818926454
-0.028033858552271335
-0.024990171665769723
-0.030261195309085866
0.0018529722430609852
-0.036817419064590344
0.03735870821288405
-0.03986006265091602
-0.006251194961353306
0.1128364360100576
-0.026924165029144242
-0.050669405867830156
-0.06394651158608021
-0.06533744820421017
-0.04981946342167998
-0.047921549423377625
0.057090801410707284
-0.15517269179058488
-0.04099697863171531
0.07362383517457806
-0.04568615496742541
0.01229747981409514
0.03409745359228925
-0.12078770980968981
0.09295392129580217
-0.13088931561187245
-0.09636230031741584
-0.02180403052917262
-0.008716164938872239
0.056882667400562914
0.0456718984141954
-0.036470994530293205
0.037154893144440364
0.06921952032607888
0.0679584850305808
0.012838085830342238
-0.018244128228160603
-0.0033696139006613095
0.1300219470926259
-0.0025259750815485693
-0.02794023833926129
-0.018524157733546147
0.05078729420744885
0.01659818495230564
0.060955340231356236
-0.034842276334605356
-0.07829984246117838
0.04446114081555194
0.0136132984378845
-0.0416745017762648
0.06754626274776013
0.037175652842107186
-0.06736570623494322
-0.01047274750945298
-0.0350054145941833
0.027938563171380416
-0.01881695347051837
-0.04118590555391412
0.016982078607679488
0.07387526569388182
0.002848567240709244
0.00872262596372377
-0.047281662092123644
-0.037513221268589914
0.03324099232510678
0.004639925655561111
0.03799916204247985
-0.07170849280553471
0.06440710205338733
0.02490487725269368
0.06917323502717292
-0.0015404151367333632
0.04232062337104622
0.06643905854763421
0.09479188445313452
0.08327248492554545
0.030266885790190698
0.011384161021555681
-0.04352936279218266
-0.06670579837023045
-0.11004163477673141
-0.04791527375273498
-0.008114062789493235
-0.10025320996941692
-0.05286430961026198
0.021741762414077426
-0.034833040442768755
0.024241164794157055
0.012651523631985804
0.01441533073384854
0.015307426194221353
0.01287339097097153
0.010182143891465087
-0.04114999641523995
0.0013978457453777224
0.05797597237808827
0.011150679641834816
0.0486892138148621
0.06787610222314756
0.017431939279947548
0.04049930961320477
0.016121754882739033
-0.009049727619205722
0.0300727327853163
0.01940801590199936
0.02436811509960307
-0.07395557939857243
-0.04410149788012594
-0.0593509171471403
0.027055109300562576
0.042086453208745316
0.03245641573103416
-0.017780822448730596
0.042013678125136435
-0.03123933288449797
0.010292102593356722
0.030212167856118008
0.008162885733275891
0.034864079191864655
-0.006225279583523231
0.03559936075264567
-0.037795770009917413
-0.03969074981602108
0.0014750965400987532
-0.06394736934564071
0.0748156787588592
0.011517492157882565
0.027761919280095578
-0.013157605685892849
0.025657499707429216
0.0342238772059
-0.0031619697675886248
-0.028244503068011507
-0.05686908605741667
0.051699434468437055
-0.07739452966826514
-0.015348823961070067
-0.04895060997951195
-0.019079114225830442
-0.0034690526533622743
-0.0008188809145815416
0.005523624090208291
-0.04036776003078002
0.033395924633274135
-0.05907608940054764
-0.03826125868822801
-0.004261418662543019
0.11122890915877609
0.024485664894099323
0.01934639593771953
0.5189794159291464
0.9964916577263595
0.479592628869047
0.07247035544272519
0.01020489670436759
-0.011962548716157484
0.031647612694887195
-0.06526325424803057
-0.06030467127076129
0.010062359952962993
0.013630777841363363
0.04406898118870913
-0.043885860144819565
-0.043392833887216764
-0.07327570132741047
0.004467312205678936
-0.0577747168807392
0.029454332830646846
0.050646471770092565
0.07598601169995675
-0.05446504731539991
0.032833381751188793
0.10800475843124442
-0.01849719084020091
0.0258649270875803
-0.030573314878286698
-0.047466551914595465
-0.015343169658292188
0.002297247322944445
0.011955517176826995
0.017073783806721754
0.055509795930488805
0.004306234676598495
-0.04309623961496779
0.005081768167884311
-0.0457973674248911
0.13747735438966976
-0.05201470775440558
0.06566896707238691
0.026227554059084224
-0.00828933798457777
0.07571152312661711
-0.025831743473806693
-0.038102070977652766
-0.034347373919326345
0.05497163355594647
-0.00030899277403787623
0.07270871132568994
0.007063258243017612
0.08223632169165913
-0.008360069966635096
0.03834917181923434
-0.027671067472075452
-0.03119651781790374
0.0336910881263758
0.028030799865600427
0.02150896072088739
-0.026225561960911383
0.03371768567401687
0.000510568686569591
-0.022110092794588955
0.016879381685654463
-0.013637391302611882
0.02410314384412453
-0.047381562440682146
-0.01713768444236917
0.02080938090409054
-0.06726188584565383
0.006265917603150296
-0.07156439006565626
0.026903115797618962
0.029918117554874238
-0.09719253702031631
-0.01651596001950231
-0.042852196795954624
0.04741423977302105
-0.08885212910936822
-0.09650070904334225
0.06348806771547551
0.01791046249046489
0.04582528345855298
0.015501529068313317
0.06674685022758645
-0.07405324637632235
-0.07327413636402418
0.025958363058132806
-0.02279735823357069
0.01978318932702273
0.020433132374860274
0.07313184233734502
0.0304901118683083
-0.0014099335257350676
0.04134107771557354
-0.04761509713279411
-0.10597265020911913
-0.0009944556283718717
0.1083758677308152
0.03316284257816191
-0.07297507252414838
0.004887972646851868
0.11274509325371995
-0.0037371390009516415
-0.011253803689616733
-0.051605856795046284
-0.012025071595956194
-0.06807351542419374
-0.026042116126239336
0.10463538177872829
-0.06584434604784532
0.024267776444952094
0.10056287190469299
0.01851147777978256
0.05885064236974365
-0.03752524131606046
-0.04370663111143514
0.0046498403786941435
-0.03775749032897507
-0.029939821787577998
0.016667928670164003
0.0673152054733112
-0.006557784104840914
0.036568046816354643
0.09535981365746472
-0.11251517190343358
0.024640763554899907
-0.0870862397439464
-0.0264373264955933
0.056781270768682814
0.06881276405430349
-0.03249148081472246
-0.041766306511389455
0.008222827166040374
0.0969005377501496
0.02392406372344874
0.06144464419807716
0.02054767096297333
-0.0809499933494033
0.0370508374942581
-0.032522752043583535
-0.014612887186693811
-0.07797620730513988
-0.036559855381380284
-0.006650401237405687
-0.07144463829223387
-0.08583668365985926
0.05146419314087741
-0.018709590726933272
-0.007498332470777379
0.0012576263406644233
-0.04373329349221987
0.08336139940156069
0.04529809836371045
0.05546112970819146
0.04381894569060889
0.05456396561004088
0.04887703828842307
-0.004552543393182077
-0.022060534562856057
-0.05175873998275835
0.06754100790809142
0.5460365634424591
0.9495530839613174
0.5399973326374043
0.10653100953507749
0.0023955700865236967
-0.008476258630673835
-0.1092274724048963
-0.04249284524743848
-0.010657871744478312
-0.006553375451094146
0.026149544625065486
0.025810955065745086
-0.06695744913656748
-0.07205870411681226
0.03710807248627807
-0.03784320203484799
0.05923150354428593
-0.00834923744788065
0.05295392574124215
-0.017816467496789796
-0.005766166854877544
0.040639010096005575
-0.06301775350379415
-0.032182330205026206
0.094546797940597
-0.021589704335086068
-0.00756617094332588
0.0007240326947791109
0.03258006452881759
0.035138018725531406
-0.01786571119847294
0.021067754452614745
-0.03808677071643188
0.017315682367411833
-0.028801082841359155
0.06660162566396689
0.09738081798033948
-0.09274795451504335
0.09317168361977651
-0.009967438060434307
0.05031550197504062
0.0472991427087878
-0.08437651305928211
-0.013992699351440239
-0.07279103960144585
-0.07137868828273454
0.07190814145076621
0.04201820645784427
-0.08519379570832082
-0.07417228916229855
0.0497516781407997
0.049425016350492734
0.021391735226096036
0.0021231805209721614
-0.03776214673820376
-0.012675157419382186
0.02090072894170339
-0.005037349470407509
0.0021632565370205206
0.11552984198665961
-0.017864416911007763
-0.06524653339326757
0.007995087329759173
-0.0020954375341977536
-0.01939939107267321
-0.023490004935185434
-0.05577632294118867
0.008680553525503029
0.060511322126808015
0.011195448217846361
-0.021544273514599428
-0.027887960449087024
-0.003034468003787307
0.029622049316334855
0.017022054583225574
0.011121203900633264
-0.059009146710162046
0.07155664948027966
-0.010234327709523799
0.0964588094301696
0.02855489629427864
-0.10305012542273431
-0.07821011256052053
0.024246779852255602
-0.04370065863247059
-0.019791023564121244
-0.020726232642641024
-0.1570971016651429
0.010267253096840874
0.016054276387910613
0.10820897935835644
-0.01902501377928085
-0.007949997574523244
-0.016273513690837026
0.13016041908070797
0.011730304210338985
-0.02469756263931871
0.001116956522188665
-0.01376824589897888
-0.015122819881408895
-0.03314674995026637
0.041952309329945064
-0.02223788891844511
-0.01649748766689561
0.0006999831249347519
0.0036106908496794407
0.06383876679997302
-0.016462347308852817
0.00042862189420686514
-0.0335368502184423
0.00782084226308428
0.006229098085522131
-0.011838714164183663
-0.019722909734712475
-0.12337509992008927
-0.05681941986690303
-0.04752652124561002
0.0403343789283552
-0.027630241077368375
0.0740947482991597
-0.0005257000718199003
0.01960233937166503
0.02044678271715997
-0.06030673503085974
0.015140193166611882
-0.07188548880431493
0.04814270037457211
-0.03593115589261505
0.032154348200411985
-0.0339175494449819
0.01197187622099408
-0.030691438898430814
0.05003255885221715
-0.0019338553401903906
0.02288122352874296
-0.02829776912108079
-0.01835405279844902
-0.0015466083736355716
0.007509384705726133
-0.06175218102142922
0.057666067195307015
0.018996741994393263
-0.07295202352656659
-0.022267619361858042
-0.12254312059358313
-0.05210142779859825
0.04920470355005579
0.006500194649782666
-0.05989248515142588
0.017116504043805207
-0.0373611409376548
-0.07181860264696621
0.02466814426458973
0.05971591128823078
0.47039178943634463
0.9838805936683547
0.5347589328587715
0.14065145660668882
-0.01077637739140273
-0.012825045515293244
0.006319688564927102
-0.0542290612357788
-0.0007355441299001436
-0.008786340294240183
-0.056011035214597764
-0.016149971602450217
0.04464788491125152
-0.05350847716399692
0.036223172216927856
-0.04669314861849856
-0.0117445907260234
0.018672698240541723
-0.044486505235544725
-0.020088502247271153
0.02973504153170326
0.018822700124594704
0.03029112747798042
0.02525219650205778
0.028490254570815138
0.013348677749035873
-0.001383163885102349
0.09144797130927398
0.07078206814963992
0.1158587147074573
-0.007407718267162156
-0.006314570434566328
-0.07252800216667171
-0.08815077521725834
-0.017494898867039376
0.08000389266482041
0.04892752231249234
-0.016972249462985377
0.021908803395454094
-0.050867148223099956
0.030398091800325006
0.00447780428774665
0.06545702054822468
0.0036312937337714107
-0.162007183123389
-0.009107574701747915
-0.008348666161031078
-0.004998137130733608
-0.09579502222000477
0.10733965476393147
0.006331957150542417
-0.009612697858593922
-0.025857746903048814
-0.027605450699432994
-0.07266441841301167
0.05981246086415612
0.0015642578812567376
0.005470983144111661
0.05655856448646365
-0.022657657998503108
0.06736853005610591
-0.021988317380566363
-0.03795576120074936
-0.015966823314806877
-0.006095397263633572
0.05907886142519787
0.014513060854070517
0.01927368669389553
-0.06067780136765493
0.009206918571650463
-0.08036943341911312
-0.03243080199349869
0.0024975838024588175
-0.06383800162835464
0.11589288025118921
-0.024347716740001385
0.06012321574034566
0.04437803884604081
0.0371392714664408
0.024403663891554603
-0.04724517423930742
0.028832057477118908
-0.004009049475162441
-0.0920448405775475
0.03215915145920313
-0.007528364036163681
-0.08576501863263081
0.11611224842100057
0.09020867553276662
0.02105685899252464
0.01893546102217647
0.008571675837990176
-0.1103783603366912
0.026050653696605027
0.01803200772173278
0.0226705145282835
-0.03212482098591692
-0.008067536894881376
0.013579984458704758
-0.007526244047887526
-0.00016789646008170738
0.017967338416793807
0.016907922183454722
0.011329612445317376
0.020362263475951704
-0.05171681011051278
-0.026098584938074806
-0.05803470720521491
-0.0344941731279443
-0.004238728243817508
-0.04884375988890026
0.10204713498364569
0.08255886375231464
-0.06576867329523606
0.0016156319805325382
0.08427600116155712
-0.034052618444224275
0.035558635935836067
0.07728512338339479
0.019599832754110813
0.05565423172840547
-0.06572606760714132
-0.02698120419969671
-0.0026115467071526084
-0.006902275185184293
0.052284925367844653
0.016486389435757746
0.003960702343402894
-0.09900498423728803
-0.008612592388187557
-0.05987345940914384
-0.036903886970465156
-0.02251527275260591
0.031975994003890604
-0.0006985024057158703
0.07536505765714396
0.03837540137338355
-0.018524308653595
-0.07181151234299936
-0.009536661241850578
0.05159274625163593
-0.04304269310499422
-0.024152908803345155
-0.03608803372263265
0.006886937203841132
-0.02651356798308162
-0.027792917345017515
-0.005977091502647532
-0.0009242059903797364
0.024543299995485036
-0.0019468237216273198
0.06747536206984547
-0.009711255906617304
-0.09108371195910897
-0.01774180082398728
-0.029661732819765543
0.12484134653463072
0.5202458885289828
1.0156792831477421
0.5363142118571627
0.12976949019128592
0.05512740540806789
0.031416638103098395
0.003912264550898989
0.05527645961100718
0.023417300553778258
0.026787405571624203
-0.031062150139619313
-0.04458751143036329
-0.013123339881217772
0.04774989242633698
-0.00629275004615002
-0.02519061873927177
-0.027374572001229693
0.06101027796034786
-0.07522763524839703
-0.05965507932924964
-0.05207724731431691
-0.029041361183580413
0.027178478789368323
-0.028700357820118573
-0.07322888355100031
0.037323276462083686
0.0230163869061219
0.06805290415865368
0.1170747491281779
-0.022761081481743193
0.05354497503119391
-0.04348768101639254
0.016513381436978496
-0.07678427001096633
0.004016655660009103
0.060816991298592554
0.11017887418289884
0.005490377830066165
-0.05112462755988494
0.06271621092894462
0.04421094538357049
0.01571547685914816
-0.023079993036388705
-0.0439431473997173
0.008024851204898695
0.023558007072554885
-0.009360705003896653
0.015901664491832997
0.005304079861994309
0.08489900338759063
0.04240399922093128
0.09647710673976928
-0.042294889670801625
0.03322279028082375
0.00048393723023650644
0.02231857100793444
-0.021929854313003472
-0.04580026051081293
-0.050751791773443015
0.0556191324520461
-0.02285437510682146
0.0171568386628014
-0.09412607194786711
-0.029162012688577044
0.014021412619684322
-0.024996487633924452
-0.03129128229003763
0.036056396212292445
-0.010227594863092958
0.012481209537631079
-0.004414063215906304
0.039443451878065194
-0.06589085372692684
0.05619438817044804
0.030782457840217516
0.02419761079294161
0.03157804830408985
-0.048959661914799495
0.014070723938284947
0.02033523246855315
-0.03230075583980096
0.03507804129200911
0.0016056705648220945
0.06536038988562824
0.03480895427310341
0.034081728286656086
-0.025097702690442803
0.07587508518676749
0.007206287155373562
-0.007726205762841196
0.044734041405930215
-0.025344824482369972
0.07652836977931764
0.1186480071232588
-0.07144772358305117
0.09134413763290054
0.010188344446528599
-0.04630607432882801
-0.060826478758281656
-0.11674735945932263
-0.052418002764115394
0.014684600715234142
-0.03981661923896412
-0.048784884744673684
-0.039683454891399156
-0.012107682134703153
-0.0239100618985328
-0.03353619432823895
0.0534599481957532
0.061021441381993315
-0.13775625441928396
-0.0018048546285559957
0.00031579484901894065
-0.09423735770980007
-0.018411607732337878
-0.015141645884307815
0.029027159749592954
-0.03015489000030886
-0.057838680024859736
0.07512817776423615
-0.016083202309300826
-0.021267469475730452
-0.07910030259207042
-0.01903654698652351
0.018130781614820426
-0.007549513327255945
-0.053248399032960615
-0.01750586846194987
-0.015547325767882864
-0.005184184288748561
0.07368085853992522
0.03897376492138102
0.057794651921477994
-0.10891963724708567
-0.013770989522761493
0.017492605971079635
-0.025509755348357938
-0.03544865824395812
0.02036832051483797
-0.0152289891510052
-0.00740888552272767
0.03032636761222704
0.13505889684579214
-0.007629158987865987
0.03540730471467745
0.04715684510894403
0.05990173209629182
-0.025316961983336963
0.026604588067804715
0.017312144873257794
-0.019306282653233017
-0.011825481087128921
0.005424185831797376
-0.04779177794685031
0.007521127777814141
0.006989090503510605
0.053605312234756924
0.48324454472450057
1.0402026003243898
0.4431158267441026
0.1564964626817113
0.05255802905339654
0.012002100177621839
0.03488151587976463
0.012007796072660452
-0.04865251793926412
-0.03346255970214853
-0.009499269000506044
0.041428645380788554
-0.04919370482799179
0.06432188053368681
-0.06722441705461496
0.009095660262334949
0.04114707127104855
-0.006685219149472555
0.019333958956631196
-0.11263277174513982
0.014903925625978443
-0.04744143067290448
-0.09328383904455671
-0.03680979237384277
0.09648565366819246
0.038544743005799284
0.05322833227598241
0.05137610388396927
-0.02937331340524793
0.03133187808759901
0.06846762953655738
0.0013498704068399528
-0.06838208433384495
-0.018835022603927897
-0.0018545034698303165
0.05571732079073567
-0.09409561553068063
0.002223455748954425
-0.013277640733761323
0.019430412795559363
0.0014794234967741415
0.019527007003399488
-0.0028734667044811126
-0.03437263578376847
-0.022436789956013184
0.0037841691466537356
-0.057985135146664125
0.035670819388537105
0.02032613618300102
-0.04526318138153885
0.012234053341566466
0.01164439432693451
0.01044378555522005
-0.10197778654474968
0.07376485693273517
0.0864089156469447
-0.04948796966654426
-0.03042974794990192
0.0593933932466425
0.07725089948083953
-0.033011735368421946
0.026061487683544094
0.012002861432864725
-0.03460450649964112
0.06452265199234464
-0.03640689114506875
-0.0037372140077230748
-0.07474388543456306
-0.025912884777696623
0.025089452901207534
0.08478565280960988
0.008577778701338011
0.03128832743279869
0.03156830274240361
0.028054650524021875
-0.023402344158849668
-0.02811797835080107
-0.16373761507019044
0.008395220817743708
-0.0035272988285228674
0.02979597470772314
0.06251214476703994
-0.015478975672011688
0.0465287953376823
-0.03208331431184205
-0.02726292680414046
-0.07320053700557481
-0.0028474613297487824
0.0433103326278651
-0.009038324313942634
0.03192933458514182
0.00795792899546217
-0.012482339879354681
0.04130903598224436
-0.04184895474513
0.01960136678193529
0.0031461882265428455
0.045988106223045916
-0.008635216381584543
-0.03544644055215818
0.022355618674207177
0.04490440435890625
0.069274410291788
-0.0018156774230228302
0.020222882859612948
0.08837715033639251
0.02338536333171648
0.07832963639233981
0.07332110212505269
0.0760552059223756
-0.013532539689993668
-0.03480765590533896
0.024240902168620584
-0.08188637149138
0.02964577344080434
-0.06960840240903172
0.014581886597408162
-0.014490665874006574
-0.017101014224942347
-0.04224526375071602
0.006900601810069979
0.09004020783955999
0.007941565341377474
0.07765349878220966
0.011651961857160512
-0.04459977789222694
0.0021557188228908393
-0.06084155076156479
0.05971742774892378
0.009807072120457507
0.00039593646365431405
0.040321591073639244
-0.028290756101857176
0.04108893798002731
0.006355304109301872
0.012791744682546425
0.02450270897412106
0.011905406343289099
-0.005158972257229524
-0.002927416363328836
0.023016082706039668
0.0006744943106914538
-0.04665048184872987
-0.0013271006410979053
-0.05272230493327856
0.11007105140387285
0.0700053466025262
0.09086895823253316
-0.01822427595979843
0.0152208761540969
-0.02422845798073857
0.08140949471112974
-0.019828562380616536
0.008537067519648783
0.015736814318259306
0.17564953737301126
0.5420708935753387
1.000714709391733
0.5856289296581881
0.1099482766103877
0.061246574001824955
-0.05433914237244031
0.09421650379658536
0.0010425824948602233
0.03133398667197795
-0.0332867462430624
-0.0525985937360417
0.01008434642318512
0.026354051786452615
-0.049248571024029845
0.003878542678749864
-0.10592487894788183
-0.036855511931836886
-0.020104425727595597
-0.09810025403957073
0.02811877884517593
0.10755286011088816
0.04909787555422404
-0.04790212006724194
-0.00020572506827725744
0.008016153779102904
0.00962085525660084
0.0033705088889041837
-0.009301318131710614
-0.028645624904425855
0.03432844795058284
0.07154876213107793
-0.028445564674996118
-0.05862601831835275
0.05543739659583694
0.0021717653033392855
-0.07098435562375158
-0.029430058301030237
0.07848833074662585
-0.0035114922948068965
0.04067228435237283
-0.08097841279084064
-0.038435271952923886
0.06750424211083747
-0.0039026513361299546
0.04132980155487362
0.050720145220369696
-0.0015276740861047845
0.007756382827079894
-0.031220129271687283
-0.10331279294739473
0.06282141868618288
0.08982676020463572
-0.03237818024252224
0.09488766193681909
0.04214250131908631
-0.10351849597144375
-0.06353090279274587
-0.1325942144825403
0.03443912655795721
-0.024132722354879163
-0.01231107131052147
-0.01993300356624195
0.0016585156817969515
0.030795888312551496
0.05887646496442043
-0.032234843492900254
-0.05449912104604544
0.024416278065456695
-0.011232211831573767
0.008072913077677343
0.048570897577402475
-0.03043394834954548
-0.10823172693587867
-0.015366326788842713
0.14025169698543014
-0.0030563697251967635
-0.03592941142878763
-0.008263446494698533
0.03796320008335459
-0.04468174508862152
0.14167655223404735
-0.04450446041296256
-0.03784935275159466
0.0951313922181064
0.030091873988015612
0.09913268323765162
0.08328368397053004
0.0407841186472717
-0.0812931655473072
-0.024981394354962445
-0.051874043039427886
-0.0211366280908441
-0.04536784039090586
-0.03904787678082175
0.07052360973823109
0.04728889283733798
-0.07496084055163275
0.023367717436014165
-0.08058471096459657
0.012654612607736614
-0.04707748086360389
-0.01888372175363206
-0.05811383095358452
0.036095773855672496
-0.03215592764288216
-0.010964229899996559
-0.0484764160652128
-0.02123622174542436
0.014876458043213546
-0.024147461986041938
-0.09494574267906014
0.036986930255095564
0.03375934069088977
-0.02197367056035222
0.040361334960782036
-0.019421074726781663
-0.0577515439644368
0.022416919379363964
0.061872909148898717
0.01754163680245292
0.0428271087507982
-0.01890388037362706
-0.00475722648923923
0.06681052251446364
0.04575588922399797
0.047930607941587176
-0.02159819372533128
-0.006692734133331494
0.01470389600880635
-0.05504081350266549
-0.08616373754800061
0.04374565510819018
-0.06627209032051022
-0.007517461255383488
0.04240062366153899
-0.024249657309341408
-0.025458491092023777
0.04806394513398459
0.04552467932144981
0.08009562688725927
-0.007389632746036711
-0.09679560109834559
0.005352785708707883
0.0025580768317068725
-0.05705525639774405
0.019285362990819004
-0.059386777058638575
0.08871090297575054
-0.027873580611945656
-0.11728201250226125
0.03174922601215766
0.039232287203145005
-0.04191098388332112
-0.0637892991986645
0.09165231542434389
0.1191433168223768
0.04641878408338794
-0.010327962017978393
-0.02502688891956604
0.017820421685740176
0.028959844343981547
0.08822925099631931
0.478260410886476
0.9754003369429342
0.43799576054893774
0.10241128495262537
0.015090590807718081
0.021790196892888383
-0.026119344222890778
0.05291104376703013
0.01259560106130594
0.0496441223330486
-0.0017388598025183347
-0.0004930302556182047
0.04166220001030985
-0.01904795973460033
-0.007655269193946657
-0.007242701775902166
-0.008932659437671442
-0.011580156667584477
-0.024045613855568908
0.11114272676339523
0.07089516539654042
-0.02212172709682249
-0.01116254678367559
0.08070440092912737
0.056124700898623495
0.0219815981486922
0.010183135129270724
-0.009701993807284086
0.0014233647770091626
-0.006481207116780411
-0.027445698092480188
0.0891726990417387
0.03656975141336198
0.03304100534988882
-0.06890310328685877
0.044140343266294124
-0.10303538044717793
-0.058845079134159206
0.04007212501435581
0.038379033366488575
-0.10239747765522511
0.04050918169143818
0.07056440996147623
-0.04503478902204879
0.03883367503161238
0.004355747775587147
0.0127535939449024
0.013102761740605168
-0.011908966802669715
0.09324468437681228
0.06261830460276696
0.08689439968484411
0.004944243687541671
-0.005839327848607601
0.021405419033818096
0.05509200860219702
0.012574599998021971
0.004178176066814879
0.004900025447399215
0.035270998587062834
0.004916567732947816
-0.023060865456365542
-0.025648128899435664
-0.023361708899146794
-0.06772853187193223
-0.042654978748623854
0.09009576032060596
0.02743393673900918
0.030579961217142557
-0.01768177748708272
-0.10190595292235863
0.02867331901982635
0.021175848496497368
0.026514339294556846
0.011458787667249013
-0.06720063199976976
0.08575081614503022
0.07061682055461946
0.07757347544647748
-0.09223842252080332
0.024969804516798488
0.053420498697555885
0.029708887935263835
-0.0001590494837909597
0.029311580837231083
0.03755758810257093
0.03138295025450013
-0.05288163361966119
0.07605571053630218
0.07363363571007163
0.03293017144787808
0.03562945061616723
-0.060527947193131065
-0.006131004125980078
-0.06562956079648728
0.13915599424818811
0.0207613239015796
0.04138538260545083
-0.003993860327425983
-0.14436584565237953
-0.04844974248508535
-0.061083516102502636
0.010661558357974535
-0.02733944561787637
0.060727981589521356
-0.03256215744436541
0.011093935784599822
-0.03677163602730636
0.05846369192118309
0.03505309778615221
-0.04643020484593294
-0.0011755583907147077
-0.03706939331942469
0.0710535216223208
-0.03442068971977126
0.04053900120013512
0.014387868296989379
-0.029703007223234875
0.07985934562936653
-0.0105048580528221
-0.06627486697134369
0.0029173138831212067
-0.031224813322382812
0.09585015415629433
0.04086020752735539
0.060616080680484054
-0.07087129276258626
0.08102851923536061
-0.012143572927349647
-0.04398865362773552
0.03125980552178412
-0.017212502847147315
-0.025553626816921506
0.06117471543915098
-0.07602406673366893
-0.030410864961632696
0.020738434498529787
0.02777755213855781
-0.07496386402753842
0.034346389866049896
0.027655745293855047
-0.049009044831434784
-0.10577539624893084
-0.05860720445522876
0.04699357614591013
-0.005577132218154437
-0.041000415144056584
0.044333200361866824
-0.027720282068705422
0.04998721288953742
0.0030489310699278738
-0.08214251499538473
0.13605818291846328
0.5092101597137866
1.0256524174785013
0.4808443939516943
0.05726632102238635
0.048881666693282894
0.02314519668729495
-0.01178458521192602
0.009429587383248388
-0.03448048278103751
0.01592409807064428
0.05006975231553015
0.13415158094396343
0.00450179938309319
0.04808487692015417
0.03508548811901251
0.02087013882919928
-0.0177709150318647
-0.03842644707121374
-0.022294352021287184
-0.005327492104677549
-0.021344334119524338
-0.061577273172209325
0.03163495718191933
-0.0472722431038164
0.048388094791881164
-0.020429319509164306
-0.06211975983863155
-0.05430640581940023
0.0044963165495134905
0.0003170323749466827
-0.05735671227060432
-0.028378583687328287
0.03206923822905626
0.015948762346931926
-0.020142852023815338
0.06732893659088454
-0.11001809461446639
-0.05222998946090445
-0.04469888793607127
0.058351476149529596
0.037190417935327506
0.1229323307190825
0.027642598826915016
-0.001394002145453748
0.10833491272794182
-0.04711325296661472
-0.037748979214336446
-0.06760694905615469
0.0374767509473233
0.006458885147861038
-0.00619995307840591
0.005252665417736787
0.0022432798947855073
-0.0788066722145271
0.07286713618676771
-0.03095756937290764
0.023372527672195744
-0.03487117025667079
-0.022632674554437453
-0.01620044091411744
0.004547287011636087
0.048055884146289835
-0.025098934367989875
-0.020434444343946687
-0.023757602052115735
-0.03534914891290029
0.019254042973431525
0.06658188146420267
0.02188158512628936
-0.008858308322939623
0.08815280800298894
-0.03404221776668863
0.006470361212590498
0.07638841600471451
-0.06294010646063199
-0.009567612551428444
0.021470658506582127
0.015081526787518021
-0.019389865472130525
0.0838021970813502
-0.02263775343090453
-0.03552696356463627
-0.007691605342427844
-0.05397368784726134
-0.08171792933013722
0.03975341792242423
0.0029659115421590554
-0.023045744553998763
0.052742437830442794
0.00863429868574393
-0.013106292841248805
-0.04051584888747722
-0.01701491286534137
-0.011488543637647218
0.047231524362267935
-0.030768362351983932
0.011218785014280275
-0.0071912344407109585
-0.030004943319760738
0.014269712361920936
0.017280657070469118
-0.03003042026372149
-0.023887311988226453
-0.03978888103163632
0.05290517725092911
0.07027050438784854
-0.014945841426372284
0.03575917532981115
-0.03805929034131831
-0.012513584831559902
0.03825770853963493
-0.02396676930039994
-0.017287877949359078
-0.04847137772898819
-0.022016839170207678
0.027022983293115806
0.027576939458288114
-0.02987901172360897
-0.05407311891715316
0.030887920126197482
-0.08698729258901491
0.044015504902275
0.07788549274071019
0.05376883547842705
0.02595204368532188
0.014030009113547888
-0.016121847764991874
-0.02801733384452142
-0.011967217637127913
-0.061884299383937774
-0.09362307007301773
-0.038958204065326525
-0.009751490235008348
-0.04067930331376396
-0.008943957895980275
0.009685108601964998
0.07652432831222229
-0.010019142014744502
-0.004635041577311386
-0.049360211988195214
0.0005979598930038113
0.029961680883064414
0.03530238314089753
-0.005750145672199873
-0.012736732933078124
-0.03404045087438573
0.004150084069283007
0.05075279635662894
0.045790198968492304
0.02162200922688988
0.014818068161102788
0.005877522192142008
-0.054354124776143355
0.057394683726855925
0.03573694846480144
-0.06784361680510356
-0.011422610620248992
-0.04011109039285063
0.20060167362745787
0.43601562304285163
1.0067843064936164
0.5307766453854145
0.039401470416733766
0.054088125807978206
-0.04346959792904792
-0.04593492688993468
0.03516829071109433
-0.007682173791201026
-0.055546551985398464
-0.050223012529409805
-0.05635254386581811
-0.036968546811862284
-0.032741923867859034
0.07718409492829875
0.09021403271543166
-0.013390904829199208
-0.05447059306746465
0.0857600697765002
0.03426436072454529
0.025508378748407907
-0.033287713733367134
-0.004685479219481076
-0.041376715651855314
-0.021051390407622373
0.09340824756697216
0.06328563334182069
-0.07280193421345453
0.018069486961755695
-0.040307059905549975
-0.05349646676750422
-0.011458676885951674
-0.05841383509638997
0.046323102663231176
0.031192800739468042
-0.03733649092647299
0.10954551218228839
0.05824746885855481
-0.0324369827554043
0.13083604058010587
-0.012922371868395963
-0.06279207204806417
-0.050710388380080955
0.005530263449120731
0.012485420373242026
-0.004965363282441442
-0.03155520939623737
0.08882099605067403
-0.019254728756426604
-0.018203353461977143
-0.11416617799773693
-0.06388523741038683
0.07384200222364086
-0.03299356136028622
0.05963338467871816
-0.03299096029326947
-0.03951409587749401
0.01152139601805097
0.018286904994019065
-0.06467627197704161
-0.024085965677939573
-0.004676817020734708
0.005875178134470135
0.021271170094983874
-0.0003920620545964591
0.05208615864006923
0.1159229601508858
-0.051204669046543055
-0.010363042924996433
-0.04046358274902233
-0.04565169566820181
-0.014895345215803539
-0.05037732533504502
0.035114036976932876
0.1096113003874512
-0.0017261518729829472
-0.02618111514390873
-0.07848986045554854
-0.026876737866485447
0.025729178425743172
0.008727634469262715
-0.04486345904113355
0.02808294953063031
-0.04800148202922422
0.020859693853035054
0.027227061955275068
0.0027455174473219844
0.07105930872305836
-0.04600497250225227
0.11254902045696168
-0.07352329460194522
-0.06662556194553564
-0.08974714455364369
-0.021907906177752182
-0.11475064453388005
0.004144484268316696
0.00431788586889986
-0.038772621370893295
-0.01634307006481122
-0.007535574513544358
-0.0007667328211872345
-0.023071486111417207
-0.0193766743319581
0.010901974460140997
-0.05617930391163567
-0.02384800999222022
0.05267507252939013
-0.043016517716628525
-0.05051938039013698
-0.05759344443036621
-0.041867985164207255
0.03827843763024792
0.041166179927957895
0.038919238952784485
0.02275778289331588
0.0179626534514931
0.044471778637896246
-0.023292230381062873
0.04010966242169134
0.06343967411172186
-0.07976335536417938
-0.015361399274140923
-0.017829677273258515
-0.0012772985993023264
0.022212020777409858
0.10424149499469844
-0.06784825941398423
-0.06165605626386052
0.042443608043490885
0.02082805566944998
-0.021645989448301123
-0.01751897649648588
-0.005546315393359684
0.021667612037239086
0.033043861660249384
0.0446173766670013
0.0650992487091047
0.04676015710575631
-0.01036282891401259
-0.06823340669730206
-0.03957414778533184
-0.10101572905947387
0.10989487627589004
0.0629584007072331
-0.02559544550740808
0.031120195802100483
-0.007256563209773661
0.03777936677360601
0.028490668916047585
-0.006113762644934234
0.007848514010122551
-0.02748308513226232
0.027092206797254898
0.007282664226236829
0.5236453735605335
0.9259838165896681
0.4994047893186158
0.10472109166166553
0.013123774877574594
-0.041163096625353605
-0.03895357945421607
0.022438987424169308
-0.02770501234062614
0.048518061081369995
-0.002507023093816776
-3.166826832330132e-05
-0.004765193410094988
0.018703760269167837
-0.0005003733165803789
0.01517529963289768
0.08719933663960848
0.08505417850042728
0.03468830194443499
-0.09916015011911579
-0.03831363673746649
0.006304364246463178
-0.028699973188232898
0.019062728534446634
0.0009147021729449461
-0.004378156204812753
-0.009576962236671257
-0.0630747762488457
-0.011198806065621764
0.057743524283164996
0.008401505150741407
0.045576957643799154
0.013555447337395011
0.029461264088949658
0.05736561405232632
-0.035200844462386735
0.054634713729370565
-0.11990435494267355
-0.014783890724355653
0.11106389721505852
-0.002404076126666573
0.05772979006538537
0.0168049102338491
0.023247822923605926
-0.05751551447730241
-0.004632843561029739
-0.04103393749796097
0.05195900663169998
0.06357766246414992
-0.020005182945510076
-0.013702930782953277
0.06105020329948399
-0.07990979494259043
0.05785483900458932
0.0006290428056596323
0.007386533618709181
0.002322793342174443
0.08909064412328062
-0.0033431333128203394
-0.06422879661190091
-0.0019227450111253012
-0.0084186717253542
-0.013081371235520193
0.059946053171201934
0.01409929960113012
0.03416570316633476
-0.17364692531548626
-0.0070206446372939775
-0.014695891516850083
0.07120278321071147
0.06645868759647829
0.052396920921493076
-0.010249576948424316
-0.04634278697677531
-0.022454154075528227
-0.004533100937211618
0.01086331249111234
0.010216128083245908
0.00341829814453974
0.000581153696778871
0.05093747959613579
0.011654434730420726
-0.022106739764418765
0.017437524489427304
0.03961643246468437
0.10013453983725372
-0.023469114642672907
-0.03952735772822066
0.01581435477380755
-0.043351357864741674
0.013259006950259396
0.07789768223701726
-0.044627584218065244
-0.011481418102749455
0.0050957605776276735
0.03117514197293444
-0.036446392276354614
0.08034910693641323
0.034534804234514556
0.017690566412479156
-0.020409445563298108
-0.0913001121418544
-0.033516755490776304
0.006745929114097993
0.051004228747749764
0.05339090700716568
0.028233423269214034
-0.0276853690757102
0.15456104692853034
-0.02069796185916386
0.06962489773331795
0.010474514856610632
-0.033797657726871703
0.004713178168752253
-0.022029192824619993
-0.09684103085930684
0.005332166184029273
-0.029721435464752744
-0.10216592415126663
-0.13632653265892883
-0.01574725935864759
-0.08021025645193683
-0.049130090942476605
-0.053908351794298905
0.08771988480460158
0.031966920979426675
-0.01447405692690858
-0.016304585673843203
-0.014624593755929633
-0.01892328177562915
0.013622067855810108
-0.042485822498511044
-0.0651579438811341
0.04986052632220549
-0.0454426818394581
0.03084726878249355
-0.049178118732470966
0.0377545021904737
-0.022041622018318743
-0.018741091972589826
0.03186216685699647
0.06246445946474789
0.019388505572858594
0.006045490196043812
-0.037645517275830515
-0.002541544110161097
0.008828472366297488
0.04268316343812451
0.03288797119841884
0.024161063432776186
-0.07119787666295022
0.07227711197491693
-0.039517205944601265
-0.015760622258298808
-0.017126488313050383
-0.01962047906950245
-0.031416668083970346
0.028152566621510434
-0.03218125809652602
-0.0895813044986345
0.06056771992157087
0.12936512879008072
0.47144189351558796
0.9489284878723645
0.5971176552010911
0.08821800716691677
0.06136904693000739
-0.01891828971005258
0.039527932580114014
-0.11118405543962084
-0.14371634111469286
0.06196864603819886
0.038434795206270154
0.029294587732177108
-0.010467541220109497
0.11429975989744073
-0.06760683471412215
0.048836879684762184
0.012186303929563526
-0.05145466584694827
0.06783566842534813
0.030649285907935326
0.016083440317222433
0.009589423152795776
-0.023230687213108094
0.0026596756298869323
0.012877131395891112
0.09838277219026899
-0.07753429861379664
-0.0729096103697876
-0.01148182948264895
-0.048424484101627696
-0.05310680368535094
0.05810093418720194
0.017408973131371033
0.0016551164731384684
-0.03267955537604255
0.028063439421480287
0.0018489515070569873
-0.02039989418214989
0.059660658565182156
0.08029227011135431
0.05642345677929447
0.03237113641391844
0.013484241381438512
-0.07049183260993723
0.020259556162098468
-0.06270411391781791
0.033889639194605296
0.012967879929259553
-0.04580745971471418
0.041772818393180124
-0.07103548159733918
-0.01591694011581971
0.014413355730331296
0.003325167360166567
-0.038658309321172486
-0.13163158674431782
0.02897167151348275
0.15046226636487608
0.025502676829489423
-0.032844732737067305
0.018878559051895654
0.02643594295904485
0.011503545730758881
-0.013701548265397554
0.019377885856259023
0.0024114404152252903
0.096519505465953
-0.017310926588302147
-0.00027004962619185864
-0.04571427560567226
0.002951320262025192
0.03583195406826216
-0.008347112181467753
0.050234311226013795
0.04695502537416773
0.03288503355731714
0.058190311447782465
0.009643024561334953
-0.027383866374254134
0.022263181361572865
-0.067949434603056
-0.03470738633562394
0.015735883030093024
-0.0781444729798727
-0.009733304705670739
0.14126930789627742
0.0414918322869479
-0.009482540743470871
-0.03603450885820233
0.022242869827525505
-0.0386356906421666
0.07938724107745582
-0.05430744481388934
-0.019708136650880802
-0.01039283209754841
0.05114289989564377
0.020639127168427994
-0.06325927574558193
-0.08140722353804802
0.027001783308250645
-0.08768109962664711
-0.010587344312254044
-0.012684565592454903
-0.017088149752221324
0.018361179306901863
0.09540404878664006
-0.008028269096082351
-0.01093523316227396
-0.06697577428735402
0.004482843998188878
-0.023888530559258478
0.013127358643788618
0.01749373441940235
0.010925422327255113
-0.07791279861896956
-0.006227972663787049
-0.01234126407183425
-0.03439169843453664
-0.009315365135052914
0.015197116545719841
-0.014726771723593655
0.03454253488909293
-0.0025314924792229888
0.022883235815961828
-0.0461394426984162
0.037498722750855425
0.035884998127211486
-0.03231253490221286
0.025349978738082386
0.048086471977805405
-0.006552910020330836
-0.09735185349008467
0.05410520133583932
0.001509569097144931
-0.0068000225458399975
-0.006941137056379468
0.0092461235415157
-0.037344140628938836
0.1335303388463381
-0.003073540221188875
0.07827704279411912
0.014867358498759631
-0.0052939912081255095
-0.028189416865235874
0.00422721946138802
0.004014909228159333
-0.14722722620038162
-0.050633080658575774
-0.0021968516123698615
0.00044340630285642096
-0.10545496688353345
-0.005552831461375773
0.15349437094446694
0.5112616779755869
1.01771203561525
0.5632083074540285
0.17524844084543334
-0.02074654390607964
0.08405807456195653
-0.07075149424911549
-0.01952977693848419
0.09100673376640081
0.027238104547241328
-0.0438274384097746
-0.0382328230873315
0.016772718674167936
-0.0184179409567887
0.0689613644404235
-0.09429806638644841
0.09358911621202472
0.019414971522791157
-0.07327217214670094
0.03245873539117014
-0.07542925692579816
-0.06642878943444779
-0.01393929967946049
0.07310826133165867
-0.044966430061629564
0.054357850374462315
0.09833928687896488
0.019166072528148795
0.044190083676994535
-0.05778210080824702
0.015414228040085402
0.0627317232179112
0.026891619374095416
-0.02292794925498946
0.020304843685207446
-0.014697293085762808
0.068679247432539
-0.04885198059268135
-0.0014048407842784628
0.08809646988384662
-0.02046252588153097
0.0530449563776556
0.011134195010517696
0.056303630833825224
-0.0030464316050717987
-0.028420825221479665
-0.02878105779133812
0.038849920088017104
-0.02042305709536818
0.08873472604034532
0.03406620956649091
-0.016586002274995782
0.0817411454679998
-0.006444425513660385
-0.09451375532103612
-0.017646950979815043
-0.0659842655344445
0.017540417433790284
-0.03843797795473547
0.04310980254325314
-0.014781154829031277
0.13968445005605953
0.018121019547100794
0.025121262820155282
0.030244430407185482
0.014670935422575955
0.06351091366025247
0.017376672869739616
0.017313821832305593
0.02020020064361476
0.05998685613477572
-0.024079168168874496
-0.10574192122461018
0.01607582283872247
0.03215513015331953
-0.04937772304134425
-0.05388310185187151
-0.04460947349891545
-0.07565297401172431
0.02849411136729644
0.058197616840274635
-0.051918406147441636
0.02574454565942602
0.010357051646335838
-0.029241813451110727
0.05522779599488849
0.12103062160545902
-0.06444314719673384
0.009344684490917514
-0.0019612153436286204
0.004539230187595757
-0.014515117491679108
0.03209900380371888
0.008581691118403073
-0.06840549128511773
-0.0022900051250167607
0.015006130860253306
0.0643983704039159
-0.019716584206720025
0.008510290622734425
-0.04345920188720323
0.07058649001035504
0.00608104409142912
0.08351739483850054
-0.008914174973111729
-0.0071262986271856295
0.010578856114435908
0.02861596583903392
0.07952398376530855
0.07387872990707127
-0.03899953885800074
-0.013696646327054182
-0.1233980649580424
-0.05346604068623511
0.00019954588708225062
0.09541907018518758
-0.07594244477335246
0.061891976168625754
-0.008536452886469299
0.036574342552006395
-0.00799663142830817
0.023938870614251023
-0.03913732766961241
-0.09073341043250059
0.024772556424959753
0.05940511221017402
0.01857120723128213
0.07217589660434738
-0.051773860331401515
0.037606048424051075
-0.014533644835125162
0.10146504506549857
-0.07069773175088373
0.012269463098450945
-0.026875553972482494
-0.04999695437482692
0.06392937897799399
-0.0806095668941818
-0.030079111085230766
-0.01043468827227399
-0.02296470576131178
0.020194746644849004
-0.008108921780467486
-0.024356261083165527
0.048615753337798606
-0.004455860286726524
0.02586032038175052
-0.07497872844071383
-0.03058995154698915
-0.018073553296382425
0.0657208061979561
0.03625861161466346
-0.10055478564298921
0.026961659676115676
0.09734521500620168
0.030322381580228333
-0.05263412506475238
0.08900673776733338
0.5251991320771598
0.9588264988334348
0.5092994673138094
0.16578794386606344
0.02701880498605811
-0.0267507356983717
0.07395634218311489
-0.054160412421895135
0.01700883224861216
-0.07950397554847873
-0.058439041096130385
-0.035836554427483916
0.0321906143691699
0.020086489039224182
-0.008223289728426748
0.051957974215571724
0.0021824937663165235
0.04474108075744017
0.06270682679783109
-0.03546786283755656
-0.03278213476236821
-0.0784110427021007
-0.0021288263877317125
0.07198746095264316
0.021033442049488444
0.018651295415690803
0.050253767908338666
0.07851330311009236
0.02586825051445899
0.03509488398714248
-0.0015697953120085346
0.01915660825976841
0.049109520373014796
-0.025614813054954524
-0.0016052437093962942
-0.030357948741380106
0.03413247190923343
-0.006069992133040059
0.01913340664996028
-0.09823263889768462
-0.0738977424848463
0.04231489184041586
-0.04160718147981153
-0.04909383042336414
-0.043442745664559634
0.010010833725783928
-0.023719625323162782
-0.022078488309025843
-0.03197256664780384
0.03687796337378776
-0.021355331732161996
-0.016161205663733014
-0.038710443335706626
0.02166386790688138
0.08801601674507188
0.03039552913156876
0.030585165926033966
0.04888349466171091
-0.021583358518328266
-0.008136906129940556
-0.09226956039267359
0.02542556948306194
-9.889694479578995e-05
-0.03148848454644159
0.008817564360070406
0.09080774051750906
0.0021364395864503544
0.009877741983684756
0.09062594580709463
0.05880165681090436
0.04456618439622212
0.09246796133246238
-0.04396531964578841
0.10272095004613242
0.05015309397379785
0.06259332168383232
0.03332870915559026
-0.04035794581798249
-0.09107742102300095
0.01986909017412408
-0.02984089152957786
-0.03551677969943502
-0.0205779200898012
-0.12631691948696502
-0.05041679718044472
-0.07499561606317949
-0.06061284420938798
-0.04062347491997172
-0.0074423394181314835
0.025334563527861016
0.09179630887546066
-0.06807529801850248
0.058409163866901516
-0.018991592091043268
-0.10693200875480058
-0.04859545506847773
0.03681986680001622
0.006209097150441674
-0.09601714252662336
0.01739209440661349
-0.05470106244085907
-0.028646343136557208
-0.015158261159679174
0.0040977801687421935
0.03261086080671002
0.015372217448046198
0.049251491673050686
0.021807004654966294
0.010758979330165539
-0.019038183626487074
-0.03708612072219884
0.06022523735635256
-0.02892808721702267
0.08771613823071453
0.04849777314718731
0.05398613863496241
-0.03592435912546152
0.04857229952597811
0.09510187567675198
0.05715617533247628
0.11015357777064788
0.02703492240633818
0.06966117756759438
0.029868841717198103
-0.06950475735420332
0.06017934289831478
-0.03576266856119956
-0.06987261338648394
-0.016503035686289157
0.021021739829041104
-0.02705898858410807
0.05822950529497426
-0.04410776150601339
0.021015951418610842
-0.006381054672304407
-0.005769477979561174
0.024117606016155996
0.04136014518411671
0.014644535382889613
0.04466274485957078
0.021078964199300068
0.10914547104223189
-0.09778089698444642
-0.18009037323281957
0.022469227005765466
-0.07032432954384478
0.008363055827144968
0.011819555971619346
-0.08092739210135333
0.022695976616162076
0.03234988360876111
-0.02543737091869504
0.06707622465328146
-0.0776944048370974
-0.014630607897317991
0.0428278182232632
0.14681308424480938
0.531521490261483
0.9835385390417697
0.3732429439383046
0.05989123523674908
0.03089427680908636
0.06502557437438311
0.05608933879674421
0.0781763367518273
0.10031491339545924
0.0033531375941644364
0.012233321400478172
-0.021248328273594744
-0.03293385870840553
-0.04427828324726534
-0.03388180209267793
0.0032033254332908333
0.05607627224355591
0.01592575001727662
-0.0007092064811973905
-0.0030345633929938646
-0.027851676612519916
-0.0179067163408102
-0.07042270419566914
-0.009773828301250264
-0.009279115780744815
-0.030005829015785065
-0.018621232273408873
0.07523997204990143
-0.009170438064919175
-0.09266753665109989
0.027641713587667528
0.0587825117927167
0.08662486918783702
-0.08803248481772076
0.05520871623208739
0.007435668744541635
0.05123969598098893
-0.0639358973631277
0.09920675752245234
-0.03684630133414557
-0.035774846776672344
-0.005334544812270822
0.036116337128894956
-0.010411665681080033
0.05483556456799826
-0.019518410578997284
-0.0027768495415232326
-0.053688713484794315
-0.006693627160387926
0.11228801760222412
0.038659201053549315
0.1653729201161098
0.0724116373353929
0.016623467537772548
-0.05693508187676895
0.06476426527467236
-0.042766772371496516
-0.0549192512311651
-0.008858298953656689
-0.040611084508469716
0.0625942529887184
-0.031219074344376475
0.067532118244151
0.014928304680702576
-0.013742782890939127
-0.007405380184819327
-0.024686957473338354
0.037303696963618294
0.016658750450295943
-0.05296189969106785
-0.042980884492086466
-0.0524807913411121
0.038859038837747266
0.07509095573365067
0.059673282619460546
0.02122044267953371
0.06269999140339408
0.011552500837926739
0.02531750792966325
-0.025156355242447456
-0.0248371509696644
0.00664245584512143
0.08467631479280986
0.07903501568696158
0.02982608222910449
-0.015298976912730147
-0.047149278864515656
0.024794588321232294
0.1447943817825075
-0.03877146565557474
-0.012221238132826601
0.04427753504979346
0.08268529980361915
0.03688187687171684
-0.0068673124401658
-0.03450822489302122
0.06536488888972053
-0.05986715009356191
-0.1290952964368169
0.0881259034783261
0.04797325071119354
-0.07582289267936095
0.03767601625203891
-0.023335989116335998
-0.06653919843418131
0.013203445811577265
-0.040383877748083025
-0.03564454143127834
-0.05368614920571921
0.010839757119989734
0.05576107934858855
-0.049703974054215755
0.022717818298620813
0.021273936841603017
-0.06336970642589528
0.004398120300444071
0.043594554589716256
0.057075522590134875
-0.005041719293335963
-0.05357794976442716
0.0083964983242174
0.015531419403071962
-0.038880092590505455
-0.08755307084837324
0.040122993481166366
0.012941151615138488
-0.05845789302110116
0.08260460252222673
0.019723970621196615
-0.08028951648119181
0.028912004077599435
0.0684535345821717
-0.01472917264989456
0.09329124556952062
-0.006409482493544973
0.056200858567915714
-0.11220557229716499
-0.0006413563884686153
0.06378776965437764
-0.09847008087418407
0.07985498135303642
0.0498442007105179
0.044051563479412977
0.020028569424206638
-0.051424087101887554
0.009499332392384627
0.01217244024793301
-0.10652011188068099
-0.024162679516467497
-0.00800439509726447
0.02684434146715056
-0.028046690457379578
-0.02312425232872621
-0.046896221256605704
0.11916307241490345
-0.0600680076312998
0.027634497951567416
0.5323375906651531
0.9609128173614118
0.4302167748514262
0.08956431981029378
-0.0013590907213654009
0.026456340358072192
0.010644084839417992
0.0043103544998536625
0.024801935020291824
0.0419204074858569
-0.028560840669175764
-0.026177871034141743
0.037369362112244765
-0.013755229726584632
-0.03857999927933737
-0.033658543128058875
-0.07348269251934345
0.02079544514969744
0.09174103735539507
0.0480928880702739
-0.032492535133901004
-0.10387053292094608
-0.05196010187397544
-0.004473646986402062
0.0393708363123348
0.03777894390159544
-0.020864837873694773
-0.003113955715009773
-0.030389411399131185
-0.02481669986913662
0.012403911116458369
-0.025829817419659243
-0.06255453301866358
0.0047875651572944775
0.030219125383491287
-0.023962783822607275
0.12048786825019178
-0.004297670380677339
-0.04075320972965439
0.09095493481103122
0.07122554996332851
0.12044737172857906
-0.0017017210599895316
-0.018386143645349413
-0.003861301841208173
0.03170943446774057
0.06058471333990392
0.051076646218001454
0.0008476943854792139
0.036316915508015975
-0.04861674736758443
-0.0457568714190138
0.006897150836213492
-0.11091327963804241
0.0001682799717306124
0.04803183842471443
0.01952771171778478
0.07015331591985434
-0.02100343710069597
-0.07266870647705534
-0.039392549246621944
0.004631550195870595
0.08437451417344571
0.09476845723728208
-0.10036286368536496
-0.010943966749016848
-0.03833188705975736
-0.03281694394312475
-0.011381164357501486
-0.038235122499307016
0.029745378468361002
0.08199791453471394
0.07989262220786657
-0.03946359792075915
-0.007061294158226612
0.07942598291806423
0.024104116872808133
0.06423639825923559
0.031586329114183374
0.051134069123280106
-0.024681634116092067
-0.032026922500026055
-0.09513070151156744
-0.05920220588686072
-0.018713798559098882
-0.09580036638036865
0.04432622774386283
0.002293992365552683
-0.01427426950642109
-0.006413435620161243
0.056610981432996255
-0.04890806611405905
-0.06057336682411318
-0.023416157723563924
0.07472640703118835
-0.038250722809438004
0.013923761242915651
-0.028926171601814828
-0.10563181287971087
-0.05438745444673582
-0.05439206677832899
0.013036879296329788
0.03964672573472184
-0.09233598917690346
-0.004976893640043
-0.00881326878375286
0.10285895727780964
-0.0015671281531046484
0.04933525438079828
-0.07419034014708152
-0.020760863729974405
-0.0788630064209957
-0.024160236558164183
-0.004037315875998279
-0.08658332576810977
0.04271776311968283
0.027295892981173353
0.0434238974032529
0.009737293389392816
-0.054839142232627286
0.04506609424842817
-0.04705317045098958
-0.07753658011738795
-0.02441841178039556
-0.011872394868271432
0.007227435614652621
-0.047110685119492075
0.07685013519753185
0.023880362023636234
0.03335505465544127
0.0540404082615713
0.014456590096184052
0.015708284179888895
-0.009157042344938766
-0.007618858228165055
0.030559840004559042
-0.06212239912739708
-0.051236653515597114
0.10510060250163236
-0.01245798827250426
0.16459375351568278
0.04000518335345402
0.02748834479584246
-0.04031412738799034
-0.014422253226623941
-0.0947984428504903
0.004719990166562726
-0.04034325069690912
-0.02349468409807934
-0.028358484590016938
-0.0555035476535652
-0.13961085384947677
-0.006448964541186088
-0.008082466595158095
-0.0854877699223251
-0.028844416174560322
-0.019041105060961017
0.11961816423379666
0.4666333263001899
1.0191287904758397
0.5456891802457913
0.055810136132447945
-0.05769739712151021
-0.062058762558945324
0.024512016565523032
-0.017525537528580732
-0.020815822658163053
0.006389480480921712
-0.09447356056408439
0.025675171701121016
-0.024873923872197466
-0.03534103053170912
-0.013232673817067976
0.01696371888267332
-0.0219199482063342
-0.044524099124464256
0.05301857554702299
-0.04385234879917905
-0.06258101796272338
-0.02446125191231243
-0.0006963202030609072
-0.058273909187335916
-0.005701178370062016
0.029919984996550776
0.053339149027616585
-0.07664280404762877
0.02813267964384556
-0.02107385567048951
0.006917892331537963
-0.04403700923002886
-0.041648973688152124
-0.016983162901216195
-0.031166313568320832
-0.04114230131307916
-0.051344572572972313
0.0015179323766739332
-0.020467185366559906
-0.07387542810742408
-0.04646571932673678
0.04021682304298595
-0.06762322182313377
0.04169934032013525
-0.02713409871160752
0.04532863089882141
-0.026729295476145255
0.04834306066887998
0.07166352400289927
0.011958826184046856
0.001682622465806049
0.04788248818345501
-0.002897335063503742
-0.04921155176480246
-0.05864527767619674
0.0102690932003835
-0.021867192052772384
0.015097356122121059
0.008398523897102375
-0.04549898234753077
0.019177120586465653
0.05582435980499482
-0.004061017380288845
-0.029384731309922293
-0.047963414417855586
0.045043041015425174
-0.04262588202798509
0.07903331361572562
-0.0009016984786431525
0.02640306797321525
-0.020711129367277786
0.04781985176883973
-0.04244218990657003
0.05862641344441705
-0.04164828266797676
-0.027637958956836635
-0.01675721100511877
0.1109102566810168
-0.0253783285259248
-0.007953204933034032
0.06417419520874376
0.05506913524183942
0.0567509382418169
-0.06406105972642927
-0.016609557108059014
0.04147314966506986
0.03771155744804795
0.023978978068786697
-0.0583958591482486
-0.010509250176861227
-0.06548540572489824
0.0045959410415708285
-0.0016853837206322671
-0.011221654197634946
0.021046827608426757
-0.0031431014456206052
-0.014078413938455856
-0.01618041836633832
0.02165950328070202
0.020867870157142417
-0.030420362878156276
-0.06155600773933213
0.011885239001363741
0.03567173767689691
0.01775994193172506
0.01886608324249375
-0.03692794367004839
0.0013416944821966342
-0.023060350865040213
0.0019114065893597954
-0.04020695983509204
-0.018696733105282297
-0.042413636357663424
-0.008283363686077275
-0.02149190334311204
-0.00453149032798681
-0.04564116159964127
-0.08141247530052458
0.04022917768105704
-0.07661119768555485
0.04413271425075738
-0.0329639347167603
0.051849034910620456
0.03345088289321368
-0.022355485604129578
-0.05058456011763454
0.03232132760456649
-0.046889922094727095
-0.0558296671582457
0.012624880616936306
0.0661684314501751
-0.10765715039288133
-0.01267680339091522
-0.03920651110641876
-0.09112982819626558
-0.006401821671577145
0.02611371220521896
0.02021071221358755
-0.014432030114361305
0.11280922210893907
0.015732786494736566
0.035138201755727246
-0.007457896969438016
0.09172885686588052
0.012272629844067373
-0.01994528338529962
-0.019644717185453294
-0.057440232522175075
0.046133693691490466
0.0007038120898474899
0.03501822051666265
0.03484943834593365
-0.10526516393985537
0.020307849019091655
-0.013709543207253427
0.08453121580782927
0.5259175405556442
0.9968346791513448
0.5498954710353505
0.11460732890076789
-0.029721253989208937
-0.07082178598212562
-0.01269361062864431
0.0068046956944915514
0.024076894476247983
-0.08387425846793078
-0.028537404177694094
0.0887568411927442
0.011971082162798949
0.051993081931649934
-0.06459664998857625
0.042587909325038066
-0.012828905189005821
-0.004806456375624524
-0.05150922156526347
0.006881357425483316
0.050890009799195314
-0.07147514534902197
-0.03744472845818098
-0.003999969119798148
0.08803215415116594
-0.015003494951762439
-0.03729364609253995
0.04523860092091146
0.015782163970515434
-0.041632483768509254
0.043080857086677866
0.03725208773388932
-0.04513053736520562
0.08848224328076094
0.00925171303999208
-0.04942566522622491
0.08804334653133913
0.05151707966380227
-0.005406985164949912
0.03790655279421224
-0.02794537606317249
-0.018350651748811626
-0.003373134780595183
-0.03975925134536212
-0.0643662498427652
0.08080253705817075
-0.1083571874201088
0.057162946094717976
0.03964222505882601
-0.06819804770184423
-0.011769421214534082
0.01350540639435744
0.03716459584134915
-0.04729794997143885
-0.006324790525427903
0.01962376093407156
-0.0542628746175689
-0.07034224490594675
-0.0015171978546098459
-0.06443275857977446
-0.06031561310294639
0.0076521801785048305
-0.033425870570476926
-0.030978829989821707
0.07738496690393343
0.038692342871616804
0.05219992419870643
-0.03823311754362626
0.0019958805940868
0.044618392179222637
0.011556930045666582
0.03747644074199828
-0.03116355151523629
-0.03902394335213861
-0.07028130209463403
0.023064907013892046
0.03051270892985627
0.031666977965035155
-0.03386307623793482
0.023024092375118908
0.06905694315144319
0.05479463568271917
0.05930793504616767
-0.09751846544926579
0.06459695277450238
-0.04677803842985637
0.019125775222661207
-0.006966036843346141
-0.043392824305533165
-0.04466350920350816
0.03548289715403895
0.010416162998209973
-0.0315908133533646
-0.08586186086906605
-0.07805043788653614
-0.07173502851803835
0.09019424343955795
0.03971102074082648
0.06270013839408271
-0.020875848719544593
-0.07889170753511382
0.030409354341551627
0.01888358701603368
-0.005229343370502243
0.0008997629871040239
0.12585364970940865
0.010635580807302356
-0.08134870164626251
-0.009005792777218573
-0.03771891334607462
-0.0099021507648654
0.053290154730039334
0.02102204463913374
-0.03253535645468142
0.03848050662755681
0.0644412011352661
0.0027151118438091693
0.04102428749222385
-0.04712023300539668
0.046772915615256545
0.06672736903028519
0.02787325675824558
0.04691771746905738
0.030010639646325832
-0.07870040323326283
-0.03509244563017227
0.0425729338794818
-0.03143355475407344
-0.01864915200116993
0.022634416966800484
0.0343393512667388
-0.010462193636190414
-0.05203795297063838
0.01677789010065015
-0.05709598795490909
0.051000300490588894
0.013868437474832044
0.050429523368674095
-0.005106448226096403
0.0012572310890507723
-0.04253414835043707
-0.14322353455252765
-0.04955168460336472
-0.06075679658789238
-0.04106925106427538
-0.0022116565711008036
0.009746848776566033
-0.0024858079940751
-0.06674911446943227
0.05220181049753704
0.017053048966088804
-0.1044509685879477
-0.026635750408541842
-0.02974493185241254
0.03886937606886358
-0.050106141020836804
-0.10588306406516268
0.13529278271759204
0.5034147666968795
0.9773119286527769
0.5581543750679633
0.033205434759617986
0.05473054783729299
0.060320600732812146
0.07800250080394089
0.03198054518990819
-0.0454556931925477
-0.01517292277089922
0.019123029127852707
0.06433385313124058
-0.022068085816753947
-0.04280390275535504
0.02833385935301022
0.010861848731468235
0.017905542416337933
0.04859095224766167
0.02157934108732161
-0.016446962174286713
0.052278137783214565
0.009317478564383731
0.02543702441076963
0.06267882584610084
-0.014058879875842013
0.003685698273201115
0.062084539847767656
-0.009144070028705075
0.03856660849151833
-0.040601949998395635
0.033376489522015156
0.06477815125453859
-0.0061454318359788485
0.04770789613429723
0.02994228268678553
-0.05753659032614936
0.007261025924370769
0.0250383095765949
0.056851176872804526
0.008355312580066582
0.04373361152063897
-0.013090284759693746
-0.05099348655484603
-0.09061234032733378
-0.031192103009485963
-0.09450672373688454
-0.06554636482238656
-0.1402516087984139
-0.04011664438575849
-0.07483416000312708
-0.017935044399443205
0.0017644333049084684
-0.07955171470818027
0.07025713983067261
0.06808016938855986
-0.008035634107312449
0.02557516494559597
0.010238538900122083
-0.029075362693323142
-0.07196037690585975
-0.030774342040232407
-0.02675733527651057
0.06047268560226485
0.06428558954531637
-0.05884903257770721
-0.0013529839265618406
0.019131651433546233
0.1400308181900846
-0.0793814435892104
0.10647160367050834
-0.008245615307559268
-0.03870754108057844
-0.05663625688109032
-0.04538566404448584
0.06275925776060644
0.05982718589989175
0.0033821511223067827
0.011896393986651072
0.015527530320598682
-0.09310326176034212
-0.058871703355051964
0.08845717424961323
0.055403469233466465
0.024000237295030657
-0.05448596770294067
0.021623330664312275
0.008737885353844529
-0.0033253547185453022
0.05333203323756555
-0.02232234856068541
0.005045840523039939
-0.029639263534206223
0.024357722354303352
-0.05381802953666162
-0.015048013992717244
0.029771455727867602
-0.026793289116262817
-0.005763365096820986
0.0941489031952002
0.06895320777201684
0.03724854779777691
0.010619780233164653
-0.003172858138317253
-0.04485882241753289
-0.050970518067835924
-0.04043138415636116
0.023998691395978555
-0.008965926374777354
-0.015612549644541104
-0.00932679508493731
-0.07789952430278924
-0.02970230087739821
-0.02019960783433471
-0.08974041669225172
0.02097349261473022
0.019728374748570296
0.062394691800617345
-0.0030646544082159975
-0.025884120394450386
-0.037065117570870734
0.03942458527473644
0.03775068693736081
0.019199727251861816
-0.01486061168098184
0.0845946634240252
-0.00642098297915816
-0.025929994528739377
0.03187032417904103
-0.024299402927818237
-0.06793452783723866
0.10743617176640104
0.03901480197470332
0.004359922849578021
0.00722175725559415
-0.05790570009202165
0.004340622167244163
-0.0127065768597584
-0.026831125824156195
-0.05863433418435543
-0.05675867840968705
-0.0003911283712847288
-0.0028533899254186822
0.009187745006647713
-0.027054225805877914
-0.036814660311922744
0.039148068365995214
0.01379680581334499
0.03085989855466766
0.07118532401279422
-0.005503087770605853
-0.05864999557836244
-0.04486256914576592
-0.03861718298773773
0.07091550219447496
0.48654856896307236
1.0470932279944818
0.45205895546736824
0.08472501457506357
0.017597822587872902
0.014979750391262526
-0.0037273749786348254
0.039995077605280045
0.01900852936888583
0.14275590480526773
-0.07974111025690189
0.011908024579387248
-0.07884268439515091
0.02536208533124931
0.061306451107354665
0.015972999627984603
0.10616639820428475
-0.05244838432666461
0.015948993048238512
0.0038803736739135165
0.021993642976451
0.015944718590818054
0.03889220992904986
-0.06511762092679052
0.05436431710521983
-0.02499190333152504
0.04462157625276575
0.04304564798853953
-0.046652744464736426
-0.019599484807789946
-0.0463652137650836
-0.02524435208360229
0.038269808015216775
0.03925621000043643
0.0407783999765804
-0.010045239574662069
-0.09154295379647703
-0.00032816068799526495
0.0673204051677212
0.05488854185639189
-0.04159869492916975
0.07628270686484206
-0.0501321650835298
0.0020175067218141016
-0.04168449321223708
0.1172516697840131
-0.0016146443906382727
-0.06913626664030577
0.06523254136044078
-0.06408889197967045
-0.018838724879251287
0.0639770710538037
-0.018379886547816894
0.018810572655484088
-0.05024128777966667
0.09651294931760894
-0.06533432131036392
-0.029745938543732767
-0.012885229922045438
-0.07956815153494771
0.009251788841531187
0.060853293660884517
0.0847278135052576
0.028825590175034582
-0.04248838238576106
-0.07419572885142604
0.15012690216794955
0.057368536861204605
0.07778640266717408
0.015483421803078677
0.05979720864874563
-0.008470120197927635
-0.06270260235850983
-0.06287747942958397
-0.0031505930384571716
0.008325705508772896
0.011381719424645179
-0.06767260615560312
0.013045407827716515
-0.1427300503609307
0.011541492139601464
-0.04194174383086188
-0.02215704656796538
0.07124643807356348
0.008955691188555433
-0.00944036887111544
0.006864037345816096
0.06343851286154971
0.05137250871735784
0.10068844939366561
-0.05012530343765999
-0.01510390320196082
0.04809633212276296
0.05723281399164995
0.016147152067462863
0.050601188212355624
-0.005167257685224288
-0.02679104726359753
0.01076635235811802
-0.04402671460080473
0.014325826775777506
-0.014826515652772926
-0.07873390615547432
0.04470158692720667
0.008964667463527701
-0.009394374887028175
0.02925180931115709
0.03503103772125988
0.044685693932950014
-0.03787796167632486
-0.05406763445792674
-0.04300447611402481
0.13157251073301782
-0.04857853650161817
0.0534680151301522
-0.05442619817731995
-0.05901817550615769
-0.08164585494038659
-0.07254758076243477
-0.014730688977834147
0.010921928877085613
0.01979866681796419
0.020531529763141983
0.03138530724773393
-0.01767833659292817
-0.10924559848365248
-0.005910580776446378
-0.033105400792581584
0.03161441603201975
0.03845159191976716
-0.03511442564743923
0.04358157141350089
-0.0045855316478841945
-0.04615762060611071
0.1160229276804915
-0.018161221469188808
0.03717396991590173
0.06525779639618354
0.027576957122251597
-0.022761939341310808
-0.014257211055241756
-0.1076497786833274
-0.04621437019930705
0.04006475598361274
-0.006885079530359191
0.02621828133604395
-0.05986388471400489
-0.01333896350390927
0.02049901957114389
-0.003177670293775126
0.08809478502942554
-0.029426635795954132
0.002722852312742693
0.010603455228430998
-0.04665012948793633
-0.06427594694761989
0.014032872249802287
0.04052261152361044
0.02852881071519349
0.0361699441195323
-0.02699485303221324
0.05929948273928863
0.4880369487612383
1.0662978347392906
0.5351253723450669
0.03625730596739708
0.026121123112247974
0.12596251872693937
0.058913750131559965
-0.03346391200508975
0.053433812289828735
0.010099687924133769
-0.031218699292272403
0.02077500238983923
0.06590718978160699
-0.035096602085338845
0.019926715704586234
-0.04115696121574616
-0.05702125799394369
-0.03704171041068968
-0.04361068579253433
0.004782536458937368
-0.03966855908368675
0.08287091613112386
-0.03947681302779029
0.009323556148217518
0.07185030095460142
-0.01552031993267897
0.016585565732668908
0.09082193478643039
0.018657868816943795
-0.06400934864202523
0.03165654854947703
0.09411803599570179
-0.03286195568228612
0.0675888241094627
0.030164997368440912
-0.007177487584372865
0.020518553774017876
-0.07740238820064518
-0.0398229403383291
0.005481680399365595
0.004667596519752073
0.007053901243190066
0.031957870981867524
0.049502637096299776
-0.02163042261771365
-0.05305185243621913
0.006978157891152666
-0.04917581734456852
-0.024084581246390187
0.07040774245920303
-0.06304401653832702
0.005073857668541686
0.03301896626971426
-0.04937211044364481
0.022057865054520592
0.08494503784699786
-0.012106245676897344
0.03845973901201395
0.04734992058573323
0.04748977182429776
0.0639349830495242
-0.007194671622037004
0.11417768333293424
0.023231962113012972
0.004147952401238517
-0.00994246669862958
0.03528126504802053
0.013102789470857934
-0.014985232011034489
-0.01736948196877508
-0.10769228193508024
-0.013339146996392307
0.048976885590954915
0.04237201911311958
-0.0162278255812661
0.03353219063301361
-0.05582996189100217
-0.007176031120527739
-0.02658858016837909
-0.03992718042364156
0.09996518879045485
0.053819048539623875
-0.024730379225271194
0.0025131856086876795
-0.13784770309516337
0.05859583266371615
0.011778246824425678
0.007835610216809376
0.06256654132296648
0.04841825638879281
0.0706179378244644
-0.08611256319327588
0.022472508404123407
0.002207842982344696
-0.04591339883144033
0.047781384757504555
0.004671149743641245
0.04989362203004794
0.015061172583263512
-0.015408503953845246
-0.04119378944470288
0.002658850528454223
-0.013868237860892385
-0.12234847202727812
-0.04792067472920991
-0.0517578922927717
0.019876201640592617
-0.03490460573079651
-0.003544159529048889
-0.007277070101133554
-0.012820977238814191
-0.07196659368316247
-0.03443081922685808
0.04892911345025319
0.05937026239848723
-0.016652418758708813
-0.052519844725814606
-0.04361008651011812
0.019179034617886413
0.04070237782599559
-0.04128359599748578
0.05467907705794859
-0.014345667059087575
-0.02728855019385376
-0.07194372775348935
-0.017000423973423946
-0.00874775899717777
-0.02309222037766735
0.07261922895053834
0.00037319953635065785
-0.02709471965133215
0.022544874552025106
0.055266769873226346
-0.004657910832744825
-0.0010776372405005073
-0.03262404248608285
0.0645843907660515
0.000428825158052849
-0.04756030269615669
-0.0003360145959323631
0.03221726338327177
0.08964544166174168
-0.09072957670098154
-0.014072034727380249
-0.012587653541739852
-0.10031795692639266
0.022946220558164948
-0.004626973509901754
-0.03389857680773421
-0.01837105231451283
0.03874973369320389
-0.1570547356332902
0.067681018439816
-0.02144244185710548
0.0028464525645497396
0.4969939175263041
1.0472573208033646
0.49838809970692155
0.11929855421745827
0.04496181393414121
0.05641682848016122
0.08307621158074585
0.028568233804051754
-0.06690996316953064
0.06724623067849485
0.09803095012682375
-0.03282670216428354
-0.0031532825697939536
-0.03192415859793612
0.035369520178849555
-0.07173257630628818
-0.05604340245344667
-0.009202390551752721
0.02498415961545615
-0.003855345076370339
-0.002664610027764225
0.03148922993877858
0.05303846388572514
0.008969734265559111
0.07618145951717818
-0.11064445476919745
-0.021200792592813964
-0.11611735995702688
0.01426759454381523
0.02388759500494858
-0.03901283916977503
-0.028176920764358095
-0.07936295483522189
0.03993844013647351
-0.07661145637809086
0.08139647163726604
-0.03299671724695548
0.002615255152537941
0.062235704581246436
-0.004270483114121727
-0.0051170914008632495
0.04527500462287346
-0.05187840775434206
-0.024982929442264518
0.02087318766016468
-0.006335438806146041
-0.07759557832191803
-0.053848194538894625
0.09287185982528885
0.001282915122085585
0.009572864875093637
0.02728955537485038
0.07148571948759747
-0.06071338477126741
-0.004576522785692487
-0.02014251995550462
0.02328885964443787
-0.056518666698571786
0.039413750235044905
-0.008810082843981257
0.0038518938662528385
0.027628441712130847
-0.0408753310045652
0.06521606876441723
0.10575167868351723
0.054197963299889455
0.09354537870549488
0.0030648057211285027
0.02750294890718758
-0.028496511857731367
0.030716514307327775
0.05968451872669344
-0.0634789676110326
-0.0360261312434474
0.011321586062581768
0.07666338079981988
0.009500073176715397
-0.07123408491164082
-0.03188375220388155
-0.04309943678204982
0.009780385659022763
-0.00910525062233056
-0.06339019379687115
-0.0022470172409583093
0.006039966738570284
-0.01153212680776463
0.06396859927846635
-0.0016138619073490304
0.05624950651544293
0.08427152270589092
-0.018029398835102003
-0.004337590971643871
0.007613798293583224
0.09291327790102845
-0.04708777751252219
-0.06940788399261642
0.02786378694164804
0.041225013092644314
-0.04681656591086783
-0.04164404760559743
-0.036853147566025604
0.04597624289876773
0.09943404605457208
0.11071664327111047
0.00628483897413379
-0.09701200585654354
-0.0509602598351053
-0.010781805618677656
0.0071540384536640635
0.03563751452721526
0.047478148686384836
0.056903337890900664
-0.07400873089392947
-0.07386452961378603
0.006850763716745374
-0.01307994175997519
-0.0525293585144087
-0.04140964791416039
0.03611288175285919
0.011128481068402168
0.05251789048539878
0.009355699567936915
-0.06784647332207809
-0.035111200497033444
-0.03154015305996013
0.014294262746201741
-0.0560793550484457
0.03864767038511781
-0.09276500334570337
-0.09775305989035332
8.988185487087774e-05
-0.039430985386057056
-0.020327169067095065
0.05905752217594748
-0.07176525082940041
0.05400983831003852
0.013990459613261688
-0.02846050041211312
-0.02323416326977049
0.027077582627213482
0.026858910373912876
-0.03372775877777006
0.021423486789807957
-0.010935994187532664
0.0428649190815965
-0.04831623975642594
-0.019681342686797196
-0.11301567131541222
0.03188252910528185
0.02246437517774182
-0.044024913808704255
0.05968601422828457
-0.05898942355187003
0.025586747591280337
0.06027630504451869
-0.002757068605861582
-0.009164332803346383
0.11966428403812533
0.5215927551588941
1.0241457091233879
0.45366521413410016
0.0692262047895331
0.03622167028510322
0.0254491447878138
0.011853659556261179
-0.032438864725541715
-0.1004134629364347
-0.04939728397481504
-0.008299316721017856
0.05062753356980109
-0.052518387431244075
-0.002289735818641485
-0.027917811826959543
0.04760780899013617
0.04519326787278092
0.006009722593392468
0.04135764100256829
0.03231330694200753
-0.0348995266003096
0.06816319202532313
0.0012462424583940057
-0.041937526399807995
-0.029004823377861623
0.0008149356210054117
0.09125191314502136
-0.033831224951377865
-0.010092244127412293
0.01846283250915143
-0.06795216626428123
-0.028166195128550987
0.04326009810034432
-0.030185542327360287
0.05170189280186165
-0.08308946767428668
0.028680323116066494
-0.0693649945438127
0.018258015456652114
-0.004343026766773269
0.06916630554680583
0.010908614464840427
0.03503073998893535
0.014825665198233818
0.013880812203530539
0.09046937554352145
0.011005460047843354
-0.019790858740482708
0.0023094444608138445
-0.08598755498751771
-0.03329558711511162
-0.06189441099342768
-0.03257307074181093
-0.06641134746811199
0.07439510986477565
0.07687272438435498
-0.014426951554362175
-0.05067081880707855
-0.022898797525987686
0.051276377131308094
-0.05863134408959386
0.016535253202638257
-0.040716500553625315
0.042266407961010555
0.06654921248274531
0.07040808965163513
-0.06268489113129547
-0.02559482284159528
0.04593688114608313
-0.015783349947796312
0.026835936955301794
-0.014213462045232134
-0.06091260201726555
-0.06404813960900603
0.001046405772931752
-0.010149738352305562
0.05996071743761419
-0.020586363048593147
-0.05825678461448992
0.03719983490018461
-0.02125790115296669
-0.0771235788026149
0.01827425786682566
-0.03544985362136834
-0.08254146188566619
0.023097612242876764
-0.03855549575055106
0.046772034832290435
-0.009895054314836877
-0.01729417018991021
0.10798203425584717
0.008202025176772553
-0.013341226663080442
0.008798313699951706
0.008525850539810984
0.08460621086679881
-0.025114665269693727
0.014029028531331046
-0.009897933880272358
0.04591322073057233
0.019767699402498465
-0.023143742508733384
-0.005438259854762573
0.02202578873122431
-0.0524436157207773
0.028453400708431886
-0.04376592045521723
0.054961115528826376
0.056145237158859246
-0.07523017990362203
0.020866674641860768
-0.014072066165113068
-0.021722197405774957
-0.004330500299805229
0.006541910125326642
-0.08565766092425159
-0.09890236661013871
0.06892578991330622
-0.004781825767591689
-0.0052317598251161255
-0.04458200868408577
-0.01762068034163584
-0.05470628282559187
-0.012629939410831632
-0.014798549983659082
-0.01888517932847529
-0.001641811064134145
-0.00782102217157672
0.03808537170158821
0.05453329012051927
0.0043943376261202545
-0.039062225869651634
0.0070700456134239935
-0.025998713811198955
0.025859551147058863
-0.09493292957537908
-0.008946886529922678
0.05707819103928313
0.01659757328962193
0.07746791445637702
-0.08378451715634953
-0.04039480170245327
-0.027546173170731776
0.0073629461306048485
0.04649535050976904
-0.026936583823022504
-0.05680830274610245
-0.037994548234539086
0.0069849635911210205
-0.031997863314794116
-0.008186824995694257
-0.06335725401282194
0.06412860301266128
0.021851270060483315
0.007558237542327976
-0.06423582349473485
0.14773824731805935
0.4822160720390295
1.085165566275629
0.4867761169335696
0.10328850269948534
-0.0485096689779724
-0.05380498744801489
0.050845283914672426
-0.00699554291257945
0.07166435286430585
-0.04604507866955599
-0.05780946939627146
-0.027688404487924076
-0.08026669976665157
-0.011620605820415705
0.04403286631141787
0.05384371227749294
-0.084744157439829
-0.09228006189668903
-0.03224577750157774
-0.08384792872890828
0.05018948706834009
-0.007622235933935732
-0.024562667365669092
0.047751926164520245
0.005150271134666484
-0.038403056468376356
-0.04681272437970536
-0.05528310418802654
0.01713096826737047
0.027721629036507368
0.08006433927794959
-0.05991454175801534
0.02836372606785143
-0.052263343572077604
0.009139938686551398
-0.025523118659800604
0.009898479459825119
0.04754300405225079
0.035673295359260004
-0.09756889058335229
-0.061332885498571126
-0.04966506229103382
0.06643103275688228
0.07794127068842877
0.0357810905929021
-0.03612062487881484
0.06926167968412737
-0.01414734359015589
-0.023040333756236087
-0.11480049598298339
0.07231446479583102
0.01160485701967152
-0.014433854016106452
0.03182787199258868
-0.016423095444362917
0.027195085988791074
0.006791551477055533
-0.03644045295480954
-0.062120737647452184
0.05043967637627164
-0.10369220711863587
-0.0672529062722258
-0.046874136223010746
-0.03610699153237903
0.0022870507575449375
-0.005578198235240475
-0.06575690179890918
-0.025282316942374206
0.05207015643214418
0.0021865284754872534
0.028728303097539595
-0.06784859430094801
-0.010261531055649758
0.036041013531914516
0.00446501103330089
-0.05152875227678427
0.018869402633863133
-5.392671189962192e-05
-0.020498483071871035
0.026024378072499545
-0.04393545547947848
-0.015307035758455266
-0.010907182020492318
0.03897759203641646
0.004283237516948805
-0.02548436337510887
-0.03399314841091431
-0.07118480231949743
-0.04024094701176008
-0.0028947354449179326
-0.09258546968039702
-0.004717224652237926
-0.0498073711536285
0.04331036373305169
-0.011206173224338999
-0.003335321631179267
-0.0530365447560778
-0.03090385423685287
-0.01264938267617681
0.020746087647754225
-0.011258208098784896
-0.027758149284349644
-0.037529836786441055
0.01138999129115007
-0.012946632319216778
-0.0619410751091954
0.011558147000925684
0.0906816195410198
-0.021784344447166818
0.012467243288805219
-0.002866195033462598
0.0014073580200734965
0.08895535313667856
-0.061069537120639554
0.01205528499191952
0.0010446744147340071
-0.06928673303115339
0.023105909184311137
-0.0935043248636192
0.03398456606287582
-0.01369942767113745
0.004921370543847169
0.018688532339986293
-0.08643205254408722
0.029102139518164427
0.02415807262734425
-0.010777283382818588
0.03669787512581208
0.08318402851460552
0.08455139656084054
0.09317423292958549
-0.07401444522917704
-0.010395267987201615
0.00574627051758855
-0.002773192745897759
0.04913102653163924
-0.06635016381789455
-0.047220611006443536
-0.019551440659895183
0.00824589716288333
0.0016538049104070016
0.013938927758973263
0.027153057256363418
0.04020534475575989
0.03046377155411258
-0.012008087049993654
-0.01766366363474773
-0.02465708707652543
0.07255056045432101
-0.06181115603872888
0.028429018616738536
-0.008767317228085504
0.23331131082624967
0.4444610402634381
0.9437008218416431
0.595365481756424
0.06364504943534055
0.011925599367102621
-0.10391662900298762
0.0012665178688526558
-0.01947394274644629
0.01444765265575074
-0.018465052550410022
-0.01830874082806108
0.07382696904151939
0.05146559343596496
0.009766510735634733
0.06648969102953882
0.055918426116974555
0.05020440309490365
0.08835598788758812
0.0029729370272759516
0.03892575001986958
0.03485867091741282
-0.03181964040469611
0.01769241168034232
0.024725067164656084
0.030951337674000406
-0.0631443825001663
-0.08750389420428087
0.009199704014991898
0.0009998974992165034
0.03456983439510618
0.024993102905707328
0.0014242188232196102
-0.0727651767108523
-0.028588366511421853
0.003930065283558745
-0.011287988916874462
-0.01535674867854965
0.014017225234229254
0.019529707655775927
0.0749956074271844
-0.003611377630839647
0.04100197208425427
0.002065531797290026
-0.0318404761721931
-0.017940894072941645
-0.004159538133315313
-0.03036113421892729
-0.0090412558581699
0.04934366502687394
-0.024953259303251072
-0.06590279352622082
0.0207138562346278
0.017712106908970255
0.007544723599758204
0.022068438451020245
-0.05583850241083757
-0.003372272461902314
-0.03203383462146237
0.08184773554776531
-0.00801677405590287
0.006212501699250137
-0.1145395863033967
-0.09286726667075154
0.07233818517381779
-0.0013261400530142947
-0.030318557042665218
-0.02643601528112497
0.009665020577779161
0.0103310582690207
-0.0240573110968877
0.009140301653639302
-0.028415893381423304
0.015947079458629707
0.05606464993261295
-0.017038820446509895
0.004248801058887788
-0.014852218037785478
-0.10565164431961545
0.04494999573977784
-0.026996506127844835
-0.023167720818495496
0.0221471898756784
0.08563989249093827
0.03633890792034322
-0.011020610528294504
0.03572170965439179
0.025506997242529694
-0.005287021238376088
0.04851801081794083
0.038772948767705546
0.09023663803432316
-0.017815948375965073
0.003439997914749591
0.08379606019598243
-0.03580715514441441
-0.01649196733206896
-0.012326914493091673
0.009208323100928565
0.04529115821705207
0.027075051326235496
-0.05352962023225854
0.017099610309295857
0.05079895636084262
0.053064937619096114
0.127982750339619
0.047951823319478684
-0.07349902429719754
0.0006804676096628989
-0.01812276466366976
-0.017027340073558907
-0.0064683962947930775
0.03593514532164761
-0.025357433590683254
-0.009753069149728264
-0.08433297578694378
-0.08600086480099643
0.02635181847260387
0.02966553252849721
0.0028259966696105535
0.07303074245256029
0.015988390918090383
-0.08108347811808558
0.04128347068436876
-0.08790491410886346
0.08873527765144751
0.06947382707929416
0.09962934689025763
0.058441194713691906
0.04622565804300005
0.0673362824502802
0.010334720396664679
-0.0554951211285451
0.04193867925183918
0.066272396308713
0.07847731094457465
-0.055166507709444146
-0.134720008168653
0.03650597114718041
0.04558488081098123
-0.06881962840945346
-0.020636357645888906
0.0056958877665102235
-0.011132379318509876
-0.05430399599880013
0.04950566305457811
0.006787830357333168
0.020390390930121377
0.036298120278266434
0.0950617913567402
-0.01713374773901467
0.06667070077263194
0.030765465027501666
-0.03704835269448813
0.0031399094218531372
0.052348436732769635
0.005400295272045847
0.03920977177420064
-0.0184715774891115
-0.0707606762216923
-0.061508912683860745
0.08520991881014801
0.543630954780028
1.0239245726187123
0.5327743088206208
0.06439056212033657
-0.021123517743839828
-0.04457464998356201
-0.03122987855615386
0.07470546302990136
0.025726720277739975
-0.01996866703272517
-0.04267104859569692
-0.042762530790184924
-0.016039333045543044
0.04089893678554549
-0.059068688693421384
0.06885104789346659
0.07668690086180939
0.011695869475129343
0.011623216890374913
0.03203847899732067
-0.07098578275865897
-0.0799147205825319
0.01116515821819899
-0.05864560325133168
-0.03486328587184651
0.002057641061154241
-0.0827726535864077
0.0303662909995504
0.008051088510921052
0.06991074260993518
-0.07854878628766203
-0.005399448543916087
-0.04056527813265973
0.05321159230024889
0.03439061513737642
0.044225547064017996
0.01614495652091647
-0.013511334660229999
0.02081287036505739
-0.024483522206287953
0.057661150717377256
-0.04684312191876362
0.007179314663464513
0.009952898362364756
-0.008294642282809272
0.0006263140411621087
0.01782261622326049
-0.022773566786213187
0.030499103844866378
-0.04036233933420781
-0.057112720943433073
-0.07409981504810863
-0.05698517309371864
0.017112981641829124
-0.00551566342072186
0.012262862451752302
-0.0074980542448724544
-0.0795185968735277
0.020244627448515313
-0.028780231089697884
-0.005655300311002004
0.09750895006546956
-0.0582579596022017
0.014207756202530017
0.06828755009841835
0.019251497837657897
-0.009298014844115982
0.05148127619912995
0.03775113187045393
0.1176481010109119
-0.11251766142760783
0.03948523834825021
-0.03131402418414022
0.05597356743228861
-0.054653399494498135
0.11347688824347207
-0.06119875931645039
-0.07127717333530185
-0.09858202314746296
-0.07129741400592066
0.026877810060009118
0.08691809251183863
-0.06471796686558165
0.0021020946168778705
-0.08150896059262103
-0.14332702294145108
-0.026445031824651563
0.08752195742644378
-0.12403999816659071
0.02445550753710471
-0.07130519211056395
-0.0578000065317316
-0.01733340987502725
0.011918609713056591
-0.07785899805204945
0.014644968004976153
0.020737626921324862
-0.050780244729587025
-0.04296882682557627
-0.053814117995744884
0.06621390159695864
0.022510741794082176
-0.02350409902409136
-0.005054185776832466
0.06615417482166208
0.05463480136606677
0.07274047117706454
0.018960285840929705
0.003423877625202821
-0.07582990960712054
0.03758792002799275
0.0833539165581621
-0.02394561321373872
0.07069947256684818
-0.019348459257104225
0.03943281867510672
0.02111022888562343
-0.025677412818169366
-0.01824758875513846
-0.031522130533158214
-0.05195308924132608
0.014572299563370805
-0.031115945940144836
0.018033662391133187
0.06309183058433397
0.00359840315037688
-0.022220400915420907
0.048078694464610855
-0.031156550493613922
0.014038972887265308
-0.1518833183184366
0.0435686794581466
0.0363329067227097
-0.11533472314492561
-0.044393246985574966
-0.055856328949880844
-0.01174134209534695
-0.07166384713489544
0.004993054022551479
0.09184089960542124
-0.0014500727201420586
0.059382265034259744
0.0029339878988592486
-0.07180776989056913
-0.007494892450598404
-0.11630132473124813
0.008920622500011218
-0.012953453681364089
0.0911986308673346
0.032856242163998475
-0.009560535170355294
-0.03268253933566969
0.023640309232979082
-0.07710124961480164
0.5051273340715013
0.9820708058502466
0.4868480257073302
0.0642801475642496
0.08301342557921428
0.002423113970481888
0.055457384179172245
-0.02324274814968094
-0.02427434772490813
0.06993662659054235
0.03954268973320248
-0.028179398144300285
0.049357865316580145
-0.05686433666675394
0.05468392449875042
0.031574745794938706
-0.0043731352074937715
0.014925158946948298
-0.05242905039573009
-0.018249477014578377
0.06818584591773016
0.06015501264462957
-0.050701223861102596
0.01896980792510679
-0.08052894265500782
0.07224457594985013
0.015150493515656461
-0.02301532210341004
-0.11390824596067095
-0.007033709148745517
0.10750829523341231
-0.015182819729377246
0.014332973190727231
-0.013856890421884158
-0.027004042445271548
0.019828757151947523
0.07594726656605644
0.021841350646376264
0.0022459853350177464
-0.023531808828748363
0.006924206251208563
-0.026027511478595347
-0.012795062216802704
0.046468680418541394
0.019223852855212543
-0.002578458861843106
-0.0890273441850725
-0.01825606240312967
0.09017396511070207
0.04615766922430593
0.051670781659153134
-0.03979719487864549
0.08158268682963947
-0.04006012258978025
0.007761276036080681
-0.04223001816060992
0.07593170685262064
0.03341430732471889
0.06157757496870432
-0.13049018744409518
0.010905920123463364
-0.05293873297903445
-0.00036003272320845486
-0.10328507318572866
-0.0485370936772854
-0.050941020067259174
-0.0816566722812148
-0.024499891160856657
0.05279663371737167
0.011819332835192455
-0.048919738946792524
-0.007370877794641211
0.0031676593082755403
0.05294618296130511
0.06003784220535544
0.004268593900757481
0.005937251942046585
0.07377788915481441
-0.07446732328928549
-0.021344055013816036
-0.07310196392559447
-0.04054299102984755
0.06658666626647634
0.04794278802148534
-0.021249082700032874
-0.03618497223355532
0.009219179681306118
0.029253340054220967
-0.01014833740206191
0.004425857289934857
0.029210256261851555
-0.0055697264251849
0.03240022700958576
0.03318094404721616
-0.006153918412496247
0.00828332110836279
-0.0017185446967004096
0.014601691217353866
-0.024019321157671972
0.04219798622962079
-0.02639176957551738
0.009078620267822222
-0.10138303923250291
0.007924927719062697
0.03838386095340596
-0.04802267028261169
-0.0936543616287997
-0.02913956128195765
-0.09430360300493383
-0.026189535500663687
-0.059505669731006995
-0.013779594145934458
-0.007006669107909458
0.03756220439170846
0.08756498195871933
-0.013166883250993008
-0.011399817397208044
-0.014060832874522186
-0.0035017332317471943
-0.05954206220483569
0.08126977633450937
0.03299593311678806
0.05761785606830985
0.039055405353574706
0.044928218126233106
0.02081963710926167
0.06696405299626475
0.004257949322075763
0.009663454763150382
-0.03042016014200606
-0.003530099358902767
0.034558814654986246
-0.0158250593187885
-0.04391368769305433
0.05756786753916089
0.004395172533423641
0.0032171553525491
0.074549352041406
-0.07189518611131017
0.04057862280782766
-0.06368987152107931
-0.08192977066590153
-0.007515276096285832
0.07650447478500554
-0.021881916187632088
0.03627864568390624
-0.027522086633065712
-0.035107139198711355
-0.024700955832801887
-0.05080692844102223
0.03129833860073155
-0.06885272913316134
0.00015438851630847675
-0.01642885011511065
-0.08087758806428587
-0.05163496250213311
0.009092506553418539
0.08302278409729637
0.5271648777437234
0.9914878448609699
0.5048928527311448
0.12989714707163097
-0.056796813225741954
-0.08389746453562065
0.04969368399951393
-0.057441753841169986
-0.12171989382544737
0.05390633186512156
-0.05248523902077854
0.0032509697812152655
0.009627191323045686
0.10528286035930326
-0.07387877469069858
0.03819015024291228
-0.007407002988396767
0.08438379525251435
0.014442752052185726
-0.03420775703716678
-0.009829369709820098
0.08359457985544977
0.0006142407801444589
-0.02273179417711933
0.05111040259450959
-0.0236874985968646
-0.023729788289604092
-0.014901675906498338
0.054471265865292655
-0.008439046906140878
0.0466272411105984
-0.024264945986189043
-0.011191407963418078
-0.046598354488997525
-0.12394404510177222
-0.013634627686811516
-0.016871762643889805
0.0348733662360825
0.0075450097138877945
0.008239664854068197
-0.035938978528999486
0.04097020900375503
0.04591642077234673
-0.09989718662232766
-0.010437875130685056
-0.05712211005264502
0.03198268389013611
-0.00949229361708747
-0.0235686894064202
0.019463347388327522
0.054728988985568855
-0.04613599408454647
0.07024096348564746
0.011932000181534619
-0.021130366813842755
-0.05362067232109429
-0.025192861119621403
0.07404231015497836
-0.053371445674569466
0.028874577725615726
-0.051850708729072194
0.02408487047852022
0.012642773054395678
0.07859546356042868
-0.0368090722847672
-0.005968930787949028
-0.05249867637713074
0.027976064308264798
0.028337965704331055
-0.04835145550350696
-0.15150528274613703
-0.05976321321720988
-0.11851448152450164
-0.04982732796007643
-0.062071932735612484
0.002803739153695679
-0.027130246061590625
-0.014694000914420274
-0.008186245807373017
0.0036866979648668557
-0.010780823194789154
-0.0006126612411479567
-0.019710513920430682
-0.010518334578960988
-0.08135286279054699
-0.09474812042150346
0.020103407847937443
-0.01974872686921334
0.03183089121500129
0.026002934345154095
