ecg
-0.005703268931504278
0.034898507457784445
-0.0012107844840752297
0.03652021403588021
-0.0326791666866287
0.0669473137490449
0.0036860508626912316
0.047417753698298114
-0.013984419904883314
-0.06777057266963793
0.042985009551947284
-0.04484345716734913
0.017173874939010368
-0.008913437728985807
-0.03502233145699283
-0.08065478217565289
-0.012647210764713963
0.011996056974515978
-0.015278319482554828
-0.008511267076316225
0.07050538445583987
0.05849803532256697
0.00031112952815603003
0.014328836614558554
-0.012316261386536631
-0.05535369010211716
-0.05620325878315287
0.08014308889564868
-0.06635600863782132
0.040465246647018796
-0.01586783295162405
-0.02510045061645822
-0.028808986592453036
-0.020609603204912733
0.06155437630147477
-0.048519685982999515
0.059485334902883893
-0.023327321218356664
0.030174942925295323
0.03273160621062651
0.058763366772435335
0.0773328704764839
-0.020832043858946835
-0.028984751706932918
-0.09479204911025915
-0.08801709918784786
-0.06897409456424443
0.028196283730386924
-0.0292460296568077
-0.019079422478260295
0.045501323825449025
0.04147863289423395
0.011588306564710556
-0.10738324644080649
-0.015232745245957144
0.010211784136272582
0.005000178259893157
0.0053973813826155344
0.0179685941325855
-0.08568134173831032
0.017814802319116377
0.10881116271540202
-0.036758086232317515
-0.0030205040207261086
-0.0710502403803362
0.04810149282827374
-0.025422195502177954
0.02585511249478937
0.04022002051916755
-0.01970826104442097
0.05647093422595726
-0.03344500249865375
-0.0073291758976066525
-0.04320253464617991
0.1190084366566246
0.0025607575697414627
-0.039328338591611556
0.020318519204805704
-0.02722168500659866
-0.010016679662454763
-0.0015055611103294063
0.03528229471826897
0.04432230363679628
-0.0222699550016361
-0.04032163219793526
0.10373591136467655
0.052078824595185896
0.013520616451025202
0.0426936090392075
0.02335776270266375
0.0695252446555743
-0.07023696939284226
0.028805698134312954
-0.006541983370332415
-0.023944175445343545
0.04442080640317295
-0.0019102529621182831
-0.00306704840610324
0.01911666077276606
0.016663532465691973
-0.05080597834278249
-0.017606541374365233
-0.003706578225630332
0.0066481922188264654
0.015920017212930182
-0.027139876882352795
0.0077437018797355305
0.05774297955414374
0.07541126655324627
-0.020080090258651054
-0.007931111153971895
-0.03264280979624544
-0.09333148815075809
0.018735788047082987
0.020355245242940245
-0.01686689753806365
-0.005864352706043582
0.06281573284348489
0.05269445829373695
-0.06820773002430099
-0.020865457848158474
-0.021966401560584436
-0.03503404894159239
0.027039414079640056
-0.001563682959297809
0.043482173519873865
0.06597914897635618
0.0011325906692844698
-0.023623051270196017
0.0025828172338546256
0.08537152451305889
-0.04130574677305025
0.05296615038611098
0.029390455180145256
-0.05979757549828893
-0.030776271908300082
0.005252991204252786
0.02581937184648188
-0.010915266588518433
-0.04639228766337421
-0.10418553598288255
-0.06433821959816513
0.012037445443950787
0.06580163134399082
0.06607297907070825
0.023502705169718724
-0.009112540571253587
-0.073179840398696
0.015606508753453395
-0.11832399231777402
-0.0762109981651874
-0.01174959267796026
0.005358583107754965
0.051154699016694
-0.03350692853039875
0.044619839243497494
-0.053694043556615924
0.06051244370892649
0.017445062699118764
-0.07613921838492407
-0.03854499262340677
-0.08121996051279966
0.0749294329443132
0.04303824936804393
0.0301853707672488
-0.03596809433460382
0.038742888030578626
-0.06426905275842303
-0.04261815872064251
-0.076915735040681
0.04820501330529614
0.119411955380337
0.041293002721435886
0.07298638716407388
-0.09049718760469769
0.050871844953249916
-0.02842839116126541
-0.05767315133034082
0.054931718120882184
-0.03267268180719506
-0.015476471551017328
0.04905037753296787
0.040003304846680694
-0.023115550980714824
-0.03017692857554057
0.010556585971641698
-0.03443345169086325
0.016823909638195755
0.026101041302811115
0.05289741912959411
0.05377130820203602
0.0022083116623101795
0.048531941864681266
-0.050186685638121335
0.010807053419975433
0.025117096010512197
0.042845819060256765
-0.0064540323529149865
-0.1086548621832566
0.10824459742758724
-0.031490778087746606
0.045780074443548036
0.052223583828099066
0.03001553188763989
0.06481024369893239
-0.09407003839815034
0.06110868916324905
-0.0879873702130311
-0.004097258573477188
0.08244590235157778
-0.005811942202379215
0.017584666264451262
-0.10787047135491355
0.055771656684995764
0.10396799429339985
0.6322439642128319
0.9204127227867138
0.46375472821119934
0.047692766052902326
0.07203793096146824
0.0026098684284130915
0.11043979946010898
-0.010538227348017293
-0.029310910366509093
0.0286826340336587
0.03399859399198314
-0.0017753919327327856
0.07909396408143626
-0.09516725369649076
-0.06166356667755462
0.07551698975210344
-0.0045201369500887075
0.032665430195790525
-0.04868720066682248
0.003624460171311972
0.01602296902889133
0.05788661247076635
-0.028346202374615298
0.05347476211387034
-0.0828645701078378
-0.025872143373769127
0.03692380526422924
-0.012262681320796553
0.03524566269656831
0.048672701853791675
-0.04664906216213267
-0.049592557643901254
0.10188777106098108
0.013311269726173492
0.10323914556239895
-0.05134861102469053
-0.010493797133507274
-0.03793587909019191
-0.010642788042801186
0.0482766060152066
0.01416676084944763
0.01931382089882105
-0.04098919155506045
-0.0301460756674216
-0.027726266984148304
0.013316187899927966
0.07049578496404219
-0.0539946809113994
0.08500021606535271
-0.040594161718336
-0.0247353220219239
-0.137735993353987
-0.08273530347862858
0.0470272464319267
-0.021580503200351774
0.03242563511016558
-0.007929564322607148
-0.03431700237090406
0.08313524756565571
-0.1178887724253624
0.02594316134383064
-0.03164504021957642
-0.0041751474643408285
-0.010946514190770897
0.0015359821354052321
-0.1292687117415979
0.066056306569871
-0.023116531652258625
-0.13165830957439326
-0.04602518295543382
0.013475019026039314
-0.04071517406167349
0.06724968405968587
0.033249883330533664
0.0007074226628743098
-0.0836780305297935
-0.040123093141886994
0.03493105486508312
-0.032620696594515795
-0.018965515728364548
-0.03277079206906114
0.008044247759522673
-0.05575937898401913
-0.007821279158735883
-0.017957667719619336
-0.010411931236085869
0.03890420444301018
0.06385239512010278
-0.06689844092675211
0.0034690038024880517
-0.10372816337669287
-0.026756101646195685
-0.004013462194367499
-0.06460534731806881
-0.06031925307899569
-0.006367215730064865
0.06442367400320786
-0.0067862624067371695
-0.06403533189909265
-0.06327057399298212
0.01707454278835295
0.012606243643755144
-0.011903938156609239
-0.03473050435034649
-0.026037205328811198
-0.0048604261902782525
-0.01857298600965543
0.0909737667849164
-0.022877165972437274
0.0110792254730112
0.00012548206240520538
-0.010272036391621914
0.0005588180866319048
-0.0402654017902635
0.04156753298485959
-0.017237181633781105
0.0335275908830222
0.03877364284774199
0.02718292356954405
-0.03501068178941352
0.038683989926913936
-0.0780701076808592
-0.07402188154321411
-0.006675010616477729
0.037804778239043296
0.06050388593603038
0.04227468593087004
0.0088332525192205
0.0077891813128285765
0.08385107942852667
-0.10799145944632267
-0.039463001680542925
-0.06524749895542661
0.005850111814291226
0.04897814662959854
0.03781474979620355
0.01706047732551809
-0.04582405744490611
0.10014228293550598
0.0661381361164136
0.059626058631274174
0.029731652387176368
-0.00048659498495467644
0.03652330425235115
-0.015166451730975798
0.005092481537161405
-0.012584502327496975
-0.021278001749246427
0.014541946848380031
0.014677327528978113
0.02883315187617279
0.025475296549144696
-0.03868457931519368
-0.03523290425714544
0.045605464994576045
0.03371212955165534
0.07585281655843812
0.049124076508625714
0.033296505867677205
-0.010737424502431113
0.02813157444872205
0.017661328276942286
-0.039672993900698054
0.03516344067123287
0.04229404857558762
0.00106721521119484
0.06139992000409024
0.013421738152880856
0.042514010986935476
-0.058487577317507006
-0.0218113917626892
0.11236910148178236
0.01617445807453846
0.056918451580795594
-0.013666762860841267
0.029309934326440485
-0.019343169264459417
0.011441910818706399
0.10322591572107931
0.0020678826087416943
-0.029052416081110644
-0.025152602527594506
-0.01387906713179806
0.010798957273545668
-0.04962764277064976
0.04249425256189508
0.03463023033473211
-0.09922572692733156
0.0854971269691352
-0.03060326482859073
-0.11579053600108613
0.026026929328358647
0.06878501158062438
0.04158869021610789
-0.04586049369425918
0.08093120297863575
0.0671627833309388
-0.06630118013585366
0.06517864167354259
0.015454098298554332
-0.03784817169516169
0.07966176830089408
0.05835687762108141
-0.031861863251149335
0.04476613061843807
0.011171982802261386
0.11228256768806037
0.49323603826440254
1.0102372794339851
0.5352406809579578
0.0941479808758045
0.06393702523615867
0.0674334454968076
-0.02414484231327389
-0.06346803034328062
0.037027434765319604
-0.06887497514834078
0.08370625000620713
0.030489288677858224
-0.005005395928733872
-0.023689258302010796
-0.04261389097799845
-0.0040402335924936686
0.01515888552419725
0.007038247064452319
-0.07130064973545415
0.0030567818327293427
-0.009496791139593294
-0.006972038804276253
0.0333454042700409
0.008737060860039348
0.015768598971283864
0.009171830499281842
0.046696271719745414
-0.011485356784171338
0.017400832126484838
0.013396287698672921
0.003976317550796897
0.011520000849764747
0.055826934405762564
0.045323094008735854
0.05591129015335044
0.06319464039123085
-0.0006160594698856853
0.02273965653067397
0.05868125641462693
-0.027618295338394806
-0.02819938080183339
-0.0054947543662801765
0.1406822760980325
0.011166576028203541
-0.0010955149591650815
0.009349067349133686
0.05477551451739609
-0.019924322603379292
-0.00030856516665307747
-0.006750865113575254
0.05661275418141703
0.029733574247729946
-0.03259064916340481
-0.08590872702741839
0.02306818042100714
0.042365194652387
-0.028416772755159154
0.02305540645312998
-0.02637786216687937
-0.0634251757534341
0.01891193095684504
0.043795487482631804
-0.017552463900710788
0.008923345669071969
0.006216324898010033
-0.006434017938861146
-0.0067475609352128044
-0.011904486694046581
-0.011546846447822974
-0.050643687477739834
-0.06931962086470818
0.021088988491351233
0.03189419550290362
0.09306641025693875
-0.016640444320068212
-0.011234381941626626
-0.09779272010133161
0.026402563901616584
-0.028260915109658686
-0.03574400819657605
-0.009366994621150856
0.009371017222363035
0.029170312308857107
-0.003998165264465505
-0.05725055963191115
-0.002712769792335387
-0.021494023402554407
-0.00988697338540266
-0.004967809309455326
0.002115168929963683
0.010279931261784288
-0.04675251353090686
0.07745636884821451
0.009713647651026346
-0.0011880321607000274
-0.04975112375114494
0.0004111420493128226
0.054484701821404795
-0.03121379231135575
-0.027964400979689403
-0.18540175830383365
-0.04654877941812029
0.08929611016009768
-0.012039146424391477
0.06866946939344142
-0.04197418615684065
-0.009420471160110246
-0.032205179758827515
0.06691707291293793
0.05465983530720553
-0.013439637220415482
-0.03775570531677183
-0.017168404026003246
-0.04423325026224295
0.0643143965296251
-0.026505308393083644
-0.013302979357669859
-0.03364881577690128
0.0005838388321997818
0.027681792411561542
-0.03794134431628063
0.013374064803488423
0.02300706496036118
-0.13370984675812722
0.057153310342748856
-0.0023003768889561585
-0.022752069732803887
-0.06398645568753467
0.06026217185164197
0.027340315042931374
0.0960056832175754
0.0007599485540466262
-0.006927234641407977
-0.026550443105339536
0.037227375100750616
0.037748045283732455
0.009669479354250068
-0.000669923501329705
-0.0076557884625610625
0.014603259249613768
0.013686811918061521
0.09668054248393923
0.07055593399989346
-0.04413422695800554
-0.013301188141975707
0.09315730697406598
0.0005425542941378808
0.04139040796725332
0.05720818759754871
0.034302841679589816
-0.06663109521269929
0.02132073719560805
-0.03478244079895834
-0.05218334407455945
-0.021023094567590973
0.050376134365102944
-0.013272728936029883
-0.01622251514424605
-0.0892323083998689
0.0488194673531955
-0.07812030837730943
-0.06279120217260377
0.1381156987908441
-0.053904748477958155
0.09280955838596294
0.08469445861173201
0.01238354553600574
-0.015625883597458947
-0.012803849203089674
-0.026192084152311553
0.12033766860896888
-0.04178088117970564
0.00010826083337726663
0.012975181815123984
-0.0751428650789466
0.03912393666275847
-0.03753147536610702
0.0010360424668296384
0.02095435959935123
0.04952459662885269
-0.049063892232136384
-0.016513832760846555
0.003766434325645079
0.05634571233309719
0.041658144854343084
-0.08673105311413476
-0.009325459037554091
-0.04246229595698866
0.013784389818825127
0.0029102359703340823
-0.05782022119512173
-0.012159071678726012
-0.10199124507254627
0.03307959542999888
0.06416782966331279
0.02717063210633985
0.009130815320055429
-0.11286596207645035
0.014980512509549702
0.08486874243951742
0.11031752227305891
0.06657675125462068
-0.029423675074350692
0.0066401765816615655
-0.03515977794348928
0.021081524483134495
0.021316987740673587
-0.03193749415300989
-0.04460038992528208
0.11408799267656106
0.5507737775448311
1.1503859185376215
0.440198102836461
0.14881559574889625
0.04620688541123814
0.028096776976449307
0.09346086081824866
-0.033949329094462584
-0.044644428844459044
-0.0879748329255098
-0.09304690275149222
-0.08979335155510468
-0.03764135617158677
0.06469309016956998
-0.011324532639284714
0.017012648404315153
-0.0751686418332082
0.007872971854732519
-0.10347028524645839
-0.04397530309719891
-0.003101279301797659
-0.031935969359120096
0.05591106959644169
-0.09619634497090022
0.027174644593347903
-0.011036791799847255
-0.011962941862651988
0.10926723717659133
-0.02043148692453815
-0.032175108708733684
0.01945358529741069
-0.019887608494560633
0.08332518224057948
-0.02839461040380338
0.036878793879192275
-0.0101711100708801
-0.04099683463873869
-0.03596290504543872
-0.03198967603624656
0.031065334746714354
-0.06005169584939971
0.013550176722763011
-0.00933803721707365
0.020719937101732342
-0.06610840722360319
0.00960519584062853
-0.042786626694238744
0.05534443029068482
0.0049315571778946595
-0.002342078741533773
0.02667526021594991
0.07675826327998386
-0.05777310158199911
-0.00197157950775572
0.005353601411153764
-0.020027521193678212
0.009194178258683074
-0.07957927385681175
0.07730589529870613
-0.01754765226985296
-0.03045910942368922
-0.018810289949253153
0.05569469826398558
0.017842217794999445
0.04188776751060261
0.051278932647097576
-0.09197144538056494
0.056970700777928096
-0.028337536504429956
-0.013415780467607314
-0.06846680216618675
0.020583654356809186
-0.012427058634465507
0.01754627045846874
-0.034169711728725016
0.06051692732827019
0.028560408382429854
0.0381553392964467
0.0007156378405344826
-0.0022776083235834543
0.06386587927632073
0.01210627952917725
0.03863797659668293
-0.044863653180127604
0.012258295221139125
0.016751837813109387
-0.01149581611823064
0.025043651069786645
-0.09239913313076008
-0.06804642361938106
-0.04647332356332202
-0.021477890038789395
-0.02062939401813467
0.01786920827535487
-0.049788611923399374
0.007488664530305396
-0.03777797251381739
0.016099154743716076
-0.03599205310218092
-0.02008372512507093
-0.06897553961759252
-0.05337877190948296
-0.03520465510901303
-0.022890866483005284
-0.07149661674283904
0.004824298981417504
0.023267547939039564
0.0496003072079857
-0.028050015588884994
-0.01092111897721356
-0.019394051513203517
-0.08027395619948997
-0.0036354768448253827
0.03412992525132308
0.05500722707227206
-0.004388865195288414
-0.0071191876325262865
0.04423970742828648
0.014267653400494774
0.012198198405612905
-0.05031549899374638
-0.1283584323331634
-0.017416218410316375
-0.0843046149530223
0.11118260967768175
-0.008706639533347743
0.044532448699015015
0.01032393007255143
-0.0457183966865847
0.01872830627239175
0.011146406141499181
-0.006997232416257553
0.008017738069864605
-0.017789042256005676
-0.02622996796636573
0.057005182764421625
0.07508937866605545
-0.0053684601284677905
-0.08072831627251625
0.02966078158061134
-0.004082965854883839
0.030577309481859185
0.0006559853651985239
0.06787664744829407
-0.09212050864912769
0.012691326818475651
0.016629184009007716
0.01580244496695944
0.0686988045840743
0.00971592021275711
-0.0368767795458572
0.04183409227382008
-0.005061562591885564
0.006778625466575396
0.03283324946700704
0.009308049327725594
0.01020184985040773
-0.08413722524713618
0.035308860777955954
0.025187073524448024
0.001905586127911731
0.036710247570725656
-0.05190221623635214
0.05565243089323695
0.046115952693142004
-0.07118758005216193
0.033168996792277444
-0.0457529728641608
0.016526063162094717
0.03798654933002546
0.027012181686500575
0.06557311619877995
-0.03606148164619956
0.02627001905124603
0.04639881470750934
0.06953019260207842
0.03404648783652746
-0.013239256368303734
0.021823553107337187
-0.033352667092869256
0.02285481881729921
-0.00048380654546071325
-0.0725119090625787
-0.007533333413349521
0.06340754938255758
0.015985740822006617
-0.04206481318993638
0.021005250539309163
-0.04446055003435892
-0.0008272258272611152
-0.00032356862711434883
-0.012323043093605074
-0.02143142816016117
-0.028625982910549155
-0.03444653083231947
-0.02754254647483503
0.08148079832059593
-0.005776320982198924
0.09745997113088044
0.07367594942349023
-0.023241390383284113
0.019513757422650477
0.008758222032065947
0.005161715179656171
0.1306964251586352
0.4520638904502761
1.0152609975400477
0.4640497737159692
0.047381201832207676
0.08233609028018475
0.07907550665554978
0.07380118989358285
0.0315005489296189
-0.05782038322772074
-0.06169837456345011
0.08801285117611833
0.04716400453916409
-0.051993408675763936
0.08111507269567018
-0.043469777574113876
-0.06559485351295381
0.01902418682670581
0.004101152237072599
0.03704770602576171
-0.008982621495887504
-0.05585701607629985
-0.011857190715242126
-0.0060437046192505246
-0.005456407762878555
0.01817707808906861
-0.025158597572592468
-0.026071659283898842
0.020515685110520047
-0.10474708672900811
0.02766056076575484
-0.025576466436727882
0.04720938482455332
0.036698150027471885
-0.09763373164687102
-0.0067541018652785435
-0.04968880332699155
-0.009640658430702885
0.05835697312807919
0.026639802208284283
-0.12656732133629356
0.049150286114703526
-0.004704215506340294
-0.06443779731437274
0.04547355240293685
-0.010234511477038737
0.023176282136367493
-0.040529492273327604
-0.04937410734207699
0.01925883409900203
0.04540745825847398
0.044152675134103175
-0.05327417451728871
0.005914765324972052
0.02637340335186482
-0.11960865947590636
0.10025906079218908
0.07240654295613196
0.01932010749152305
0.008936985329080693
0.0068888452493736894
-0.06631396943053185
-0.02680808499662913
0.09040785698136188
0.051575926437434305
0.09253077793309386
0.023413294954590224
0.032693503480354956
-0.058626736507484616
-0.02520885684399204
0.026799858337103185
0.019415758918388305
-0.03187324395264948
-0.08090832163109388
0.044255279684302554
-0.1194143403650107
0.033166043573464414
0.08388789321329082
0.00683702506149735
-0.015910316172769706
0.07215263980039625
0.08139785020924062
-0.00776745612828205
0.03538274482253364
-0.05339221298147349
-0.024702553986980316
0.05400623898002004
-0.07287211264899665
-0.0012154900278522557
-0.19793670723527254
-0.0074536001548441855
-0.048616629198198105
0.0685307112459138
-0.04650909887096797
0.011640475408677957
-0.017441340730727513
0.10550709542797893
-0.0028632290174403895
-0.11826129740699105
-0.0069167795157090844
0.030511780954978557
-0.01946366137300994
-0.03719503035914391
-0.02812938333738096
-0.012710462925740726
0.06566445285570086
-0.01739724639313107
0.034958512485854035
-0.08536588033289715
0.036635178450373077
-0.024702202215968454
0.04661382528162064
0.021649898261407067
-0.09496495776749056
-0.06767898775293663
0.027605854650130848
-0.05893253816442312
0.04345817252018021
-0.02470475460769963
-0.024412741499142927
0.001904426770062145
0.0457195450040433
-0.09238475320349807
0.12736127235388206
0.022220782475345428
0.09583527173343959
0.0307681378424694
0.010050669027313455
-0.04080189200371184
0.03999154574550149
0.04537600451019447
-0.031522023348859556
-0.05524111496254485
0.0021282089786059384
-0.028552132796564367
-0.0034816963581059714
0.012544937912843805
-0.021874955933124295
-0.013413795130227408
-0.010440036292354505
0.068021903010727
0.016717064737028536
-0.024118174467336356
-0.003267814921897243
-0.05488202764192818
-0.02037126164734014
-0.028693603030314336
-0.016616141131933698
0.040318404671123347
-0.10301189084896467
-0.026974217944948205
0.06417894874438461
-0.03776672623879159
0.019723364138863553
-0.03261648935230398
-0.001048183382062955
0.04093402440625932
0.012420126142627073
-0.039987151084012955
-0.12304853594770433
-0.09749794864198852
-0.015453427438751666
0.05736567873812104
0.021597399446342678
0.021105669724436383
-0.03284056012995344
-0.04550212989789973
0.007438577829667516
0.01425572519490109
0.07454972590673468
-0.03828319516470116
-0.0192746009301381
0.01545631568657633
-0.07813708632628527
0.03771089895652827
0.003824693617375659
-0.030544392978887825
-0.028322371004162822
-0.020933669580253625
0.04950276189328086
-0.05716228540551915
-0.02072501709819226
0.030289165770062063
-0.019613939042323864
0.005129724960418118
-0.027015046903577707
-0.037953245057692604
0.01384525392022289
0.11583185689614646
0.0422471489160049
0.05831824286896057
-0.02950798741009906
-0.02612217212874328
0.001191493428683194
0.00979808768784286
0.02602808537543776
0.006883747894018204
0.12754767958797364
0.4568763188475986
1.0210160021642056
0.5128652416476543
0.029136026736211337
-0.00744420700010865
-0.0817677014213504
0.01406300461072271
0.06209871963492006
0.031164566373695548
0.00419952318511996
0.05351762659919956
-0.035025288552946704
0.09054489138509872
-0.09476409355302012
-0.03785889193324605
-0.006440145394162374
0.010380913281551997
0.019272011552372004
-0.029650182204393645
0.034013727608659255
-0.05549499597800531
0.012690123591534328
-0.036634725680177685
0.033826803375015306
-0.111824039597614
0.04217386773310034
-0.004675940752558687
0.04561338371562057
0.004376345344726594
0.11688622416737678
0.041426232241430355
0.0890711150538953
-0.022102887570318617
0.014790864899711258
-0.035165836943476574
-0.061371363744063816
-0.06668397820828262
0.03142954123838689
0.02140095556245791
0.035152503556187646
0.009380707317532835
-0.062344454988039505
0.07655312483216906
-0.012602586388054124
0.046408697998956056
0.05503582537809198
0.030589983341149096
0.01601773936545811
0.015984766208315137
0.07496803560022405
-0.015806782326662373
0.041091956446869984
0.014124642023994799
0.04773138334320163
0.02867431862153562
0.04449774009347205
0.01816680539318022
-0.08837103181577378
-0.015391901643063054
-0.08842415657384016
-0.065382342279918
0.02656185150004798
0.0640179058138512
0.005577116939347156
-0.01769763170176419
0.03213141480574607
-0.023186458263005888
-0.04547075383835633
0.03289579661747685
-0.04266843727385623
-0.0037652717031490175
0.009572143064645752
0.05716072237706885
-0.051181265565246305
-0.031664972723161766
0.09167973894269738
-0.010318200923138003
-0.09868476585599306
-0.03520662323546572
0.08349025805278769
0.019097485255710006
0.041367276715953
0.06526649363440946
0.05045703674323746
-0.010632902345726038
0.034875980608858055
-0.04131574500183021
-0.003098325631919162
-0.04789746206630994
-0.05645144154400085
-0.0006973872331439896
0.003915593474596865
-0.0826939402395831
-0.0210242771371248
0.011056002574953861
0.05086173988279496
-0.06975515368156684
0.04369618025089214
0.04589581666232795
0.02325127101143996
0.06858393242674822
0.03736583714295162
0.0026205199911386074
-0.0011554396983420945
-0.04440352059706431
0.03699366556982704
-0.09679606710534477
-0.030843080774194415
-0.11639606770398142
-0.033080018112395
-0.04350073190926402
0.07047507877477015
0.03737677870327468
-0.0579181340089736
0.016443159308671663
0.027768924250641553
0.048019977804074854
0.061683465917707986
-0.0039340595402570025
0.07746164156020534
-0.027349529682303537
-0.03816415991130903
-0.05110515244462687
0.0255606029747323
0.03360638672281972
-0.031860448211382675
-0.031170253035727142
0.0015742690591132023
-0.08654986901043929
0.02290599642738078
-0.04565418136380359
-0.025842376021353575
0.004167232528257763
-0.06662874853352319
-0.057417034660863314
-0.1739740097324709
0.026522414826704917
-0.07049364062093257
0.013323904467669066
0.006369942421145924
0.011576518084483666
-0.009489513164198897
-0.04975111905249837
-0.051791204520254375
-0.0012772559310814998
0.10085383942871982
0.07622260736044591
0.025429159803154213
0.0178825144746058
0.028698645828359067
0.0028824175628393463
0.036412507762861195
0.014352454743416065
-0.00832520932854398
-0.008797175844135868
0.07729498175300958
0.09800431711099845
0.02270935127889181
-0.07700820893336525
-0.053518108282094294
-0.05136969133052319
0.00013844163081235363
-0.009022944061667126
-0.02239425993923315
-0.10813465184413006
0.08478609583305141
0.002735429393545997
0.06873213544184145
0.00637967396081838
0.08531240280447855
0.06292042978607798
0.04987369331941514
0.0041513264543064825
-0.023924354037090697
0.11349006695087185
-0.008518475954573645
0.03521754462725898
0.015800823339402314
0.01478556297846467
0.047073567229664104
0.01807355555507284
-0.046173556133330296
-0.09388089820477286
0.030480721577466393
0.0010967698758122403
-0.021481481418423837
-0.012074347855775061
-0.0016131559666798302
-0.10315489755694232
0.00183359489673484
-0.043957734749260326
-0.014429816551735922
0.027583004238488952
0.029810192085333045
-0.09728169080336681
0.012792663279411138
-0.019773499592737335
-0.010783332742297484
0.028989135802093075
-0.010453860261213026
-0.012930875038161736
-0.06528193005931955
0.00038064888025799717
0.06822360139240234
0.0008842123158948498
-0.026753514047620993
0.05805239629197967
0.12701794772718278
-0.010933276559448852
0.04623225687368034
0.00047897346694784383
-0.049988312966948
-0.018528982528739416
0.10059388680070099
-0.06071439502088671
-0.008247011527133244
0.02690055301740496
0.0020196253141456944
-0.0737647111968544
0.057715078575899297
0.06627888970828757
0.4413969459541735
0.9654951571822026
0.5112905290748141
0.09600021430490689
-0.060543617358293
0.05189971266775794
0.05539087036121326
0.13777503388965892
-0.02323566413883293
0.0118999583133942
-0.07760008188909145
-0.0025466581446132747
-0.01066138182115638
0.023002314818967248
-0.06277048735799945
-0.03000095766194747
-0.045713746629651324
0.021002207369139336
0.02296125511465473
-0.039251702288933765
-0.023855379703753316
-0.0453304318874904
-0.010461823578094356
-0.009450129113633847
0.006271843362410006
0.03442571816523797
-0.017723549713530677
-0.028485467239381165
-0.06106752680832803
-0.04819524138966173
0.015165148573712635
0.02622341871147953
0.06399835697487113
0.02245217245986372
0.009913498684356745
0.006609417778770559
0.03470996900580411
-0.03361160222446232
-0.04427860241811857
0.0075590334352640485
0.01665107958041271
0.03738283867082775
-0.02017577859094092
0.053445822724807406
-0.02501655748184152
0.01071477940645542
0.0391185298209017
-0.08362764486936089
0.04277893581257838
0.012334262510017437
-0.02284987183296772
-0.00981770935570429
-0.0850129879488078
-0.00825728482982029
-0.08472773919858714
0.07863075019949929
-0.09443793675742396
-0.0755492476886664
0.06866883962224876
0.019383630246327645
0.09485132338468891
-0.024905977124958824
-0.017809362697918368
0.03379009258551158
-0.013236150280646904
0.08317381523589357
-0.015477280548132489
0.004186069910079511
0.0021418794196655026
0.01211786899547636
-0.02323617942835629
0.016819858091868044
0.01288253727836137
-0.0531756405813829
0.003477742888078344
0.05682290859847166
-0.051921686483588636
0.06279291532253391
0.03182164734206679
0.05936764303876229
-0.014535413783382762
-0.09078628343419473
0.04955139561406946
-0.08814719744207619
-0.04289540340579523
-0.040565451585228854
-0.029919355242083546
-0.007512807715059822
0.09177769123965517
0.022206210167685494
0.09088833359220726
0.024489799070406285
-0.016745132990954377
-0.03165959912363936
-0.0191742992189273
0.06833520677080528
0.07397696552500659
-0.011657700891812738
0.06208358866750402
0.08377876607631464
0.06992889253912689
-0.0367268985026052
-0.016565207797175022
0.024187364847555383
-0.0014928779325423492
0.04118979702017713
0.0003167798957927431
-0.01829678122681435
-0.026528390315886705
0.14933970056366982
-0.08246467164346705
-0.06285830174070976
0.029349428158374297
0.035684011171022025
-0.04808945175664876
0.03963140070120363
0.020971360554882124
0.023178977717922
-0.027562053120730252
-0.09983731275990865
0.009622880245279436
0.01643547407669374
0.037521864734258656
0.06386112895108208
0.08406699335027082
0.042881008482174396
0.07182374529900283
-0.005100555580910153
0.031979136570146456
0.007488475509137596
0.027061227600675298
-0.02901573271259751
-0.05085699316726025
-0.046697733481309504
0.004486262586642739
0.049539475273580456
0.07088532705254759
0.0928968175261675
0.03813590698970425
0.06047692140138902
0.04924653816682519
0.030121200474136956
-0.008727829848599855
0.04311604659792121
-0.06851892084754461
0.034221301483854355
-0.0267468915965009
0.01463939012964518
-0.05266578190228577
-0.002928182586208741
0.024468212721103163
-0.1136480432527367
0.04951897057414816
0.08112761594882961
0.06539096646055859
0.05616909703995822
0.09716675095938751
0.05562237641126516
-0.022342339953297836
0.027089540356448685
0.020894309485691376
-0.024187424462242285
0.04495800033598213
-0.0394336176496401
-0.06719986129577858
0.00058346976184034
-0.11378067236111503
0.0015339864300922836
-0.03649710539761416
-0.058255748642927124
-0.007227130099741765
0.11119830437254691
0.03369361872089747
-0.055357077150092374
-0.03779528454220575
0.00029128739305815963
-0.014861376285441728
0.00043566468749275375
-0.03224783044616927
0.03285389504018215
0.027533150459116407
-0.003320364659192631
-0.0168145911878616
-0.03896826958074785
0.022165172670691572
0.08648477736715149
-0.00928347466870787
0.021783011716159772
-0.03867123260927699
-0.018927582681788128
-0.11898835013474605
0.052165612154347056
-0.060018550747813454
0.017747834223790046
-0.040822579813402426
-0.00821915380732115
0.061600768708171355
0.019229549859826486
0.08537842333429521
0.4634436119283302
1.1110150896758737
0.5514251048325862
0.13888814860629178
0.020096675402589012
-0.00026107481350220817
-0.04433178345410713
-0.06645966511757243
-0.06422190152240217
-0.041279807918596145
-0.011934033831064186
0.04427300127293746
0.010970091678505059
-0.0401916582895763
0.07677368814728591
0.006785568780745719
0.00977950318834118
0.01270415446245967
0.06126208310188652
0.033132752743690215
0.009799178198264136
-0.04944279286540776
0.04176936699104371
0.019834319481021788
0.039043980700614024
-0.012126300818270336
0.052786652446163866
0.01998847495239884
0.01404712874444889
-0.06282374414844383
0.025281147678559227
-0.0016375071203754599
-0.006493192921597936
-0.0022614952976775125
-0.017874546763125616
0.008416834148159259
-0.06742010964945404
-0.0041230004203748
-0.023779455087734887
0.11923254989960617
-0.09772817888517124
-0.007527485037574068
0.02365102817602713
0.022693510898781903
0.03348958540855377
-0.01707551879163053
-0.1121859916070575
-0.024762214763596208
-0.00018691420861027358
0.02602230283436758
0.013564678914595141
-0.022175228164118117
-0.0017002171763295948
0.047115252234878745
-0.02470911939976079
0.023016262097864594
-0.013867593620147965
-0.0090541187264276
0.10326950756634845
-0.07113354508902388
-0.06441181244544618
-0.05071949884743418
0.02223697222328041
-0.03081317558799176
-0.04911130148899736
0.0424309275124406
-0.014485905716476342
-0.05080482176171507
0.014711233670485045
0.08036614542778842
0.04980245877558679
-0.06270634853617194
-0.031150910321424186
-0.015865388740747027
0.005745260494557414
0.0011959151249496247
0.008515337750932531
0.08554102948133635
-0.02970750975840396
-0.029228913171731787
-0.0056499197730873855
3.606714322135638e-05
-0.04184304972144361
-0.0525040032586544
0.04385743852568274
0.05835918680873532
0.03448483499026072
0.012399356886365195
0.054077530087044016
0.05970279435362352
0.02618731974197875
-0.05913163671837062
0.011009254956172883
-0.0034278730565083593
-0.027954079652172593
0.014785412483797201
-0.01297621105386041
-0.06217549736305409
0.0018276626316587323
-0.01054324793287346
-0.045482881271831914
-0.002990600556507509
0.08943567381141652
0.03875588764434737
0.031301522653907225
0.027417844152871414
-0.06920126328936879
0.07509373395375178
0.01176876747684421
-0.020421928044705617
-0.004916630186858283
-0.08454159864732573
0.011637083555275622
0.07545757745517628
0.01678373123181986
-0.04255132132461911
0.09040582056440531
-0.07695074738526848
-0.06381653632759303
-0.030381423785370718
0.06525095259012463
0.006139103492422135
0.02621532994929085
-0.06265789966060846
0.12207048072836153
-0.0822521293445796
-0.06747354208183015
-0.104492180232801
0.11197245253618163
0.03689962325095634
0.09441460898267824
0.008749103840212026
-0.001827553448369916
-0.03560424880393808
-0.04335792131965507
-0.002460119276671729
0.050271982098287676
0.007732270239059782
-0.03862519059442335
0.03721929318283226
0.12925143794195976
0.03081489835367457
0.03721895036084767
0.009701410452616754
-0.020159056260298194
0.062254025499346805
0.12089645810267896
0.007039749726788085
-0.016069649281155295
-0.013304495560687211
0.027325380259685863
-0.04325708502795309
0.08085478442744645
-0.04633604941379171
0.06859634490975151
-0.028777190989552778
-0.031667389396876244
0.014718104925953282
-0.02311909608569845
-0.08451354110263051
0.06114250379613783
0.09592131468970085
-0.05516995959507179
-0.011710238135929928
0.019854046954966804
-0.0017351980306920395
0.03922566863011544
-0.011648254817926263
-0.021259639737455985
-0.0016364155123641698
-0.011575436252367885
0.06840583134072196
0.01085916931413132
0.025488228956040738
0.01622993001702663
-0.018157758706966492
-0.05841615312801118
0.036976645109799595
-0.02971807585796611
0.054939167423683946
-0.05126347233635355
-0.06320266576694483
0.058789255456226756
0.08924837714960637
-0.011571550823682872
0.04685784489478465
0.07432075829009727
0.022333446059301713
-0.01437067202037694
0.02626089617942964
0.0003178611978469398
0.13231341006990827
-0.020020009042409206
0.06289071235415541
-0.006103758289004977
-0.014162489378327044
-0.05024596737927133
-0.06573665011060563
0.07081249322068493
0.010514083405131129
-0.05421104758149436
-0.004760061795365878
0.015856245339501522
0.028995038530183814
-0.024546524363157875
-0.04183035456123623
-0.06355847879764846
0.1297357908656596
0.4863419751118306
0.9401255141098864
0.45792930173669477
0.08844326342915136
0.08102408909572462
-0.004207801994944314
0.03549574149616291
-0.00312026382586799
-0.008223152008980288
0.09134125069837462
0.0765718376348812
-0.048001064707129885
0.07780810188086641
0.03951800118707468
-0.0031539055994362166
-0.019410240131142936
-0.018709239702236032
-0.041131682135246615
-0.009652358592875554
0.02316509437259869
0.015967161137683077
-0.07373064451679903
0.02889156010393659
-0.03698485816062693
0.041550931158339216
-0.094887764655584
-0.06665075221582954
0.029377513542018924
0.08795604209224306
0.0073787325672648495
-0.06869457614323118
0.08525193096128726
0.01536851035580368
0.028390971636774953
0.02253792356893109
0.015565745783743874
0.0626876085991037
0.05813039871637367
0.03222020514928647
-0.0497064242655669
0.06701062099572035
0.0268917490469166
0.07033300273102215
-0.04136497246764129
-0.02943916507068477
0.05605149829189091
-0.015584115947132493
-0.029692825231735515
0.015213228537013498
-0.007146429982762533
0.011811561899462045
-0.0002507632203000496
-0.05633774088772728
0.01567231210589409
-0.039850134821570994
0.060713533428562574
-0.07693455778563728
0.029322580046521374
-0.02237320328790148
0.011997379310557315
-0.04629647703550962
0.00707050065097519
-0.066483003421141
-0.035386293402223656
-0.014100946095859586
0.007135140311816048
0.027255876102934375
-0.05620731400611537
0.03753771728496698
-0.049568556790416246
0.023516828684435723
-0.050074624654564026
-0.021784136245791605
-0.0014513636646087662
0.022017711393718612
0.11998715694496881
0.05032009220831546
-0.030763034843636267
0.07120979338532014
-0.11607785551976209
0.005746023045400145
0.01475268445143304
0.025432710716940133
-0.048843414337250424
-0.004433291108772241
-0.06108790528036109
-0.0514387675493053
-0.13191712805652042
0.01817324237676465
-0.03653160944724076
0.06622225641155327
0.022704452537726304
-0.010055588054882658
0.027701710398906412
0.020962871766051126
0.09218563171469696
-0.03486481094106123
-0.04987354463167487
-0.0789264451922691
0.0007783947650169395
0.0022333168821390133
-0.12543444443926394
-0.006406684666869479
0.06737918483080733
0.09752168118781065
0.04143524474600212
0.004664322114832329
0.03936405478943047
0.026806538093041034
-0.0469614973593498
-0.04384300559177402
0.017975496445770126
0.00986646735126006
-0.03965328563828293
-0.03976846062909078
-0.00790918644194815
-0.022045537012266886
0.01414122774120246
0.034231592432652905
0.01981528462887945
0.02175329374386851
0.03083278633722828
-0.005757703380420438
-0.06826596107140384
-0.03054677656028682
-0.10482419921756399
0.031052825653251195
0.021401610514769145
-0.01793062370996246
-0.042080529795590106
0.01028685558098692
0.04002073351016162
-0.009318888536463996
0.06959816377301975
-0.007777649340404415
0.015103319297460872
-0.010256671616722484
0.011377522808735387
0.046516722448192854
0.056933621010274986
0.009478593236713304
0.008467292578804304
-0.03230837241578702
-0.02169236515531875
0.056806392729537386
-0.006301470909790507
0.03139854547525305
0.04955444474145317
-0.005147722830300233
0.0464268134574276
0.032544988852795075
0.05127758955220305
-0.006749019210201887
-0.024011970669139182
-0.021535112840813362
0.05685717917972151
-0.011774820774440866
-0.011866229285213947
0.07697943662345902
-0.0029300155343445614
-0.13149844102119743
-0.011050256567582134
-0.0019953997619851097
0.061060073827502274
-0.06384565859873073
0.01378692671897679
-0.014843476952184076
0.016725515995726397
0.017749194628418022
-0.005618963873464065
0.009952495027045394
0.03965770935234228
-0.0572423912908781
0.029230353103099373
-0.08716560102181976
-0.05906438814254227
-0.025460880821488424
-0.03745211346645375
0.07123525834640199
-0.09454023805207648
-0.009752185397852015
0.05173781642807482
-0.014693105209877426
-0.007927245526055378
-0.02990351245499955
-0.08855400227849285
-0.04452435704755916
0.06536378008084724
-0.034761544344541366
0.056840202811724576
-0.02836913161511541
-0.06158224042075853
0.03750283350428459
-0.03742818467227974
0.04728298837193721
0.014962021975024248
0.08184762163246877
-0.05036008732163563
0.06590431909828254
-0.03258814007860175
0.037363677289563725
-0.0077328467675503755
0.04965926884267653
0.539354442756402
0.9775704625004719
0.5247883485584011
0.09192576112827565
-0.0018690445169538248
0.018897383344855887
0.017881828163555737
0.0074578803102002544
-0.07458206896167784
-0.0063051596923398585
-0.001124984770978341
-0.04097854188363413
0.05723057213254717
0.0307447099909011
0.037616409698707484
-0.07071295029739041
0.006293491019686426
-0.05355893066539698
0.004576913664316509
-0.016831788581989676
0.061522616744582176
0.024935290214048285
-0.030465639319926165
0.12849245338802037
0.039370665218322075
0.046662135171226055
0.006716235211163675
0.021883793925503145
-0.007405673126266065
0.013054566305165058
-0.051143184751021364
0.042894844269468886
0.06824144444747533
-0.015475904858254945
0.07978349446398349
-0.023615726088289733
-0.03375596926364461
0.022661847441242954
0.0059039176866304615
-0.025070072361690066
-0.012554656537116805
-0.026594993781387362
0.022027680384502715
0.0185299057853613
-0.06157772639636973
-0.05073676756619399
-0.047335646615555324
-0.01810710153199974
0.06102267639051637
0.05562868058975944
-0.05864836071972893
0.02064114779940334
0.03582221834771966
0.02016073078866265
-0.11441927235202275
0.07858575672981857
0.11955198073934346
0.007395198306023171
-0.03207649933100802
-0.04422593573442602
0.06611245899820566
-0.02128598232513971
-0.03628672711548681
0.015686514246346667
-0.0613674000844344
-0.052361861152359725
0.018654137445723373
-0.04499197488459032
-0.08945501587995383
0.0440647800018159
0.04700377680662142
-0.05059955631103344
-0.011978002696297965
-0.05397181648902406
0.045545199254671695
-0.10049249430519969
-0.06675733748727533
0.07054262964413886
0.035930048474398645
0.03683528972007004
-0.013808053621889159
0.06818739189363633
0.005336300496829691
-0.06806558186364223
0.02644650799997519
0.07084865026918545
0.06233715080135724
0.06270724122760221
-0.09849902060117827
-0.007216751138651086
0.0006673790278657738
-0.036317379163318
0.010863677246746944
-0.03191187792660942
-0.10745267170364957
-0.03803096394469884
0.029347086588184846
0.014544941434816334
-0.057695568758523746
0.034404786664316435
0.04634368131489232
0.005335758038813719
-0.0043624240935087
0.017260215823758602
-0.05801461088138621
0.12066501619845232
0.022737384298304072
0.019427751158682616
-0.07595468936793864
0.07347264607965785
-0.05196387568490496
-0.024666131268074435
-0.0036035811439853096
-0.03233072107073517
-0.007327760814151429
-0.043929187248822395
0.03982691231846236
0.021933435000373428
-0.021168743089916023
0.045543665905811576
0.006843156065301635
-0.059162935561781774
-0.037096237382779125
0.0285194776907637
0.03807912762644374
0.022415539265377895
-0.0072333409259130385
0.0609967040516251
-0.05200034840660881
-0.03046842339292797
-0.005645622952640015
0.018302011090650758
-0.011260559725274523
-0.0844936283046871
-0.039620055678042526
-0.0848931286793323
-0.0372145487546949
-0.046381581242126234
0.08669723562546493
0.054952338791415395
0.02782159830454847
0.07471048105492849
0.02169995895949653
-0.11263387229782158
0.07427239838561392
0.03492970202688784
0.07760772779147729
-0.0291981552344454
-0.036672668278063286
0.00861443191655051
0.01638986696711556
0.02867839156741622
0.03072572157072429
0.00411801402692425
0.010477682105870578
-0.031135480602881366
-0.006714137202743813
0.05121839742565498
0.015983810514131485
0.017819957087508883
-0.06558557236242414
0.009622255597936929
-0.03733761226553632
0.03211268520224205
-0.03930294327924384
-0.01906288512803946
0.14900053040799885
0.029490941787356274
0.07604386743967484
-0.00895514643992644
0.0334129206365163
0.05357301975052578
-0.05073161666524239
-0.019280222387939024
0.019677336395755477
0.00792686477194021
0.055602669478161365
-0.03392145179381278
0.11991474180877382
0.02393812084687281
-0.016929882948361074
0.007299640097537283
0.024319021060464453
0.028840171831908935
-0.02273869660666837
-0.03446945870541636
-0.020901756399488138
0.08646729789868765
-0.008371072848013503
-0.013538094579258737
-0.006555507574093869
0.024679643515759662
-0.025302813585600416
-0.06774372965645757
0.04305791277251378
-0.015953754511148846
0.0604359845571708
0.12211505360741282
-0.0396748620870136
-0.029012275087275986
0.022479127512287287
-0.004262718396762833
0.07706994954557547
-0.0018057652456984403
-0.027119839402390856
-0.04271477453199567
-0.039474051449650834
0.042023998414772196
-0.09275714305931966
0.03589647557361569
0.007695348431736292
0.0074056238430489476
0.041761594750405286
-0.00019680911899406327
-0.03922126349794418
-0.09023737974430036
-0.013233320190530782
0.07780324218343256
0.5218919170024983
1.0481135120601848
0.5211047374275289
0.09823686901290178
0.061602988257475004
-0.03340451219063394
-0.09119822012136536
0.004027253803753214
0.0006507668364548153
-0.04744187399645446
-0.021643082456845444
0.001009119061799404
0.013943799006270019
-0.05802436657561492
-0.01801516437917396
-0.0684771716926631
0.020393860735114403
0.01595480316573266
-0.0017889645645913213
-0.002067004478366756
0.07215240185111457
-0.06425075199249143
0.0448252359240754
0.1212221843194276
-0.028887168097539846
-0.021401275931794805
0.0466558135915852
-0.011415723169172224
0.07476002441656725
-0.06342426821833806
-0.052090581897744695
0.05488202419455301
0.0537746336646111
-0.045100899472901884
-0.04962550148190629
0.0514981840788527
-0.030000094336517447
-0.034359218706968855
0.03200452498950964
0.04693408171501381
-0.009008163904249992
-0.0667772355240573
-0.11292645824984651
-0.045936250913018915
-0.00792146233015347
-0.03679906225009299
-0.021187244034400178
0.024452826750708645
0.032692825346841356
0.00922808912742327
0.0008680045501950073
0.04568016818063854
0.03161865346131459
0.00944432563978674
0.060859010298673515
-0.04362289512168124
0.04908426002873928
-0.004522547452889066
0.017729849107668668
-0.03976746953303684
-0.08743705688107067
-0.03507974176704342
-0.034499089412832
-0.05068636648466929
-0.0086355730966326
0.026154704291199444
-0.006831658697600338
0.016786931136016005
0.008415374409174475
-0.08373909707286313
0.027992565572415175
0.04065915887520613
0.11658828580922692
-0.03364905899375202
0.01618495164921036
0.03048421098175181
-0.015066444640396394
0.0754051091233069
-0.022277952703251277
-0.05193306599591187
-0.04789322751500854
-0.06171653334854743
-0.055893034697733435
0.027093123905830598
0.012066138155481698
0.012819377549025193
-0.031073866826615806
-0.0218662420486891
-0.003940853898517887
0.052777613583274575
0.03556895728449246
0.006093462092753372
0.01154963375006018
0.09250423597325014
-0.05213081597602629
0.02477355937149443
0.04942683017489334
-0.07037025581015792
0.0006335928320937573
-0.04506086812345232
-0.010696273587978866
0.03957725809219815
0.010052306901691684
0.047983480822458985
0.0499838972111808
-0.020449225126274333
0.008023586503597678
0.02871018822601648
-0.0482876592787994
0.08061771884592961
0.03572705832113827
0.060462654265188376
0.0480875374308608
0.01092638869213755
-0.0035730078683004957
0.03686740707699595
0.06710818715781668
0.001743900833147737
-0.00836620285351703
0.008687049692347956
0.06187881489288608
-0.032800465309202935
0.015445746759269803
-0.03693009409044252
0.09674705296152647
0.002107795174479256
-0.00625478033626616
0.06632106379893231
-0.013760769993295141
0.06637856620037844
0.0026004468863080887
-0.06818255967871757
0.06479014789354663
-0.05080190042492449
-0.02536894182605024
0.03672338565779743
-0.08409812400810224
-0.11238375811474406
-0.16612821601247474
0.030867361530759557
-0.007480330956412255
0.09645084614831999
-0.0007376621327328595
-0.053958388798504314
0.023834278142621238
0.048220229034534594
-0.0317035442627932
-0.012697270748922525
0.10037670433940359
0.0019787718020900765
-0.0479674691302683
-0.07476474150626825
-0.0032148584158727617
-0.04757102799588844
0.037546499351605644
0.1034601093592096
0.08069483565944859
0.07146682693790714
0.02732335070004834
-0.04476655067680353
0.047143470417781115
0.0028924461511305546
0.03019736633975382
0.05122853851035594
-0.009409905136341946
0.06596083713913997
-0.03346309951647677
-0.09817928108559254
-0.045787782343745774
-0.14434343047475182
0.04190690299368795
0.005719190936663304
-0.10469554088159255
-0.018252174588940313
-0.011094354317953059
0.02406958520349978
0.00477829702459456
-0.006097821909934374
-0.0110312769509875
0.014053534514874894
0.07600071251736423
-0.07373712110517616
0.08271736121251434
-0.00891470796075685
-0.017229139972273814
0.058739181387583085
-0.018141654623222928
-0.026262449100135993
0.04467752780502587
0.09607491170744041
0.04437493329509257
-0.016958689918137714
-0.03765074365070911
-0.012414491746146247
0.06414265264204391
0.031923608993079264
-0.010998306410510751
-0.010870823335541312
-0.06027299101831571
0.05508364644046998
0.02849626942635232
0.4708013648302711
1.034202473263659
0.5045163369966367
0.11271832185535906
0.021487073419133952
0.009919108148826947
-0.050974355529357675
0.08245973214867343
0.08167790805286067
-0.012319753724800347
-0.13236043305160147
-0.08416938159488949
-0.046516869773750205
-0.10424860350690046
-0.1940444741618055
0.03829658868717959
-0.0456410620469537
0.0026415923196402083
-0.01369983000541955
-0.014827906407712511
0.06795172865881986
0.011361931352080747
0.08546502597029154
-0.011380610193383696
0.007823393584805776
0.03297493439992343
0.02932884343079292
-0.04267085768540718
-0.020057327140149732
0.031984038606620135
-0.03514074662043935
-0.009381868086697193
0.04748432301859326
0.04765358202802142
-0.10851237354609491
0.04454374184270357
0.0820555542617211
-0.04083913285978053
0.09584639159690383
0.03726185168255181
-0.00997641295486091
-0.006630916001464153
0.009164804515006978
0.014558142846144663
0.0919459800584392
-0.028203765730694885
0.06234144603430214
-0.017806167130979152
0.013293766082442426
-0.02612192709561946
-0.032861564900805634
-0.002535340126215697
0.02936026058522503
0.05943836875223818
-0.07966972828513551
-0.015215182111705106
-0.06084920917587049
0.016359903529040192
0.009049370622482933
-0.044598002906253306
0.028875106204272406
-0.029827631645729692
0.029427307503013873
0.02057891677367922
-0.026119766681286558
-0.015286305007069506
-0.03596152882090817
-0.01870866837316362
0.019823055090479595
-0.038031500324140245
0.028073457472173907
0.014679473053235376
-0.03880820968836257
0.026668027482482943
0.025798992493756258
0.07083575973681808
-0.05497627811307935
0.11035562464048783
-0.0005320806478613159
-0.004317431387944495
-0.031869676402602284
-0.03019299382814067
-0.04917331841398326
0.005222546896420052
0.005131885313207442
-0.02720482305160021
-0.04104124454909511
0.011833719215403398
0.02266775096364726
-0.09075011652885856
0.009717514082599986
-0.01428675874645809
0.05410663692679462
0.055866374066059314
-0.018472513983706484
-0.07207488081253437
0.025486100247900698
-0.01588730485637876
-0.07606687438469383
-0.07358930943441358
-0.003956875324208666
-0.0048261066932337345
-0.011716967881060037
0.08812329276757402
-0.0007443611393738212
-0.039183915499102856
-0.008838220153791215
0.04326384069554609
-0.022367882594783103
-0.026442776401597614
-0.03324451314148304
0.09247699727322539
0.07661630512081391
0.010299133643015837
-0.004090305614572084
0.11930664110244998
0.04937642136088568
0.008237382855015562
-0.01428210704311054
-0.026384813391561915
0.06269152879176572
0.013484082615036431
-0.0866502574859756
-0.03306063282674967
0.05614708550016365
0.04055736915158889
0.02202505260532696
-0.047058119450449326
-0.03742775308925091
0.01570488248742431
0.036457903931987945
-0.0255735606391691
-0.02720141488769135
0.06712733361366151
-0.007442424976189083
0.03959600086692586
0.059181361452180475
0.018469872400162665
-0.014817244930971713
0.02288409847477131
0.01953032248242229
-0.03360695031736174
-0.018871748109558304
-0.02653205463299755
0.014851777864580968
0.03790120731835413
0.10152211423616592
0.05691791190994211
0.008321626522722269
-0.018345613234589147
0.04740807535103564
-0.0018527718943201256
-0.11496023406269087
0.04932386492598397
-0.03646196805801444
-0.017543865886465903
-0.006409380781342339
-0.07732746856897046
0.011631307345368077
-0.00720077852596559
0.005457515471276038
0.04237496409882921
-0.025665044587645593
-0.04768217958591961
0.0337928122350322
0.053842097139680606
-0.04231449828692966
0.04577021338281696
0.028360281856618225
0.09713117868768734
0.07131077324964628
-0.023662644147916818
-0.031117757790780572
0.055187573920231894
0.016283683492508926
0.03297433920384948
-0.0015423306002921564
-0.02105784677001545
-0.014526721767553409
-0.011543386424691176
-0.05120187176628202
0.054305500718004475
0.06645535464835939
0.03525695473067419
0.07187930457667857
0.09179964760230705
-0.01667565375919623
0.05997164223145908
0.01320234598293115
-0.00901556108347247
0.04060178351540121
-0.055037967658115444
0.1262587203072509
0.06314507851149942
-0.06378343297094151
-0.011889421847576836
-0.03388239483865496
-0.008834796913998305
-0.0051157912017251
0.07814539607445273
0.011685796529904344
-0.05939412337991543
-0.04866120569971547
0.017986551416299817
0.04405439840442836
-0.0636475920172158
-0.06614683332614434
-0.0007451189424461554
0.014372527165269123
-0.008270266010572324
-0.05109727443904325
0.051950365809826426
-0.024348672374532858
0.03599739549763129
-0.07844097076090262
0.10412200738281088
0.46210891091837225
0.9934175544323238
0.5832298653383748
0.11404050957911435
-0.03412823868261852
-0.020075447371829924
-0.018103079169924867
0.010041398719919423
0.06054950478178263
-0.003123704304863002
-0.02043004114842345
0.025148750584092678
0.030515377884781526
0.009821722611689104
-0.03676195087695696
-0.06644780915610952
-0.013615497577353024
0.053071867764904634
0.05153574835413363
0.0038998680456462107
0.06758301403794557
0.02708894286027984
0.036454123140462945
0.008256892159770494
0.09990275554365724
-0.015719766067974615
-0.06832129903980609
-0.00456929696526217
0.01683560410237468
0.07969670199505519
-0.029915110728027546
-0.029412131312909
-0.00018899984137907811
-0.08577295539191168
0.004775052794302794
0.00794545141786456
-0.060942774176687024
-0.11380494665733494
0.014492038129912822
-0.03975488482959922
0.03098046331854161
0.032079845488967015
0.038300285720895555
0.09660418696192707
-0.04193985661776557
0.032946333713953564
0.04605611085950053
0.04090404885307077
-0.10725292991550794
0.010937187580717366
-0.029281742351617176
-0.029477753449260402
0.010367210352257464
-0.061123384512595136
-0.05521258616411021
-0.017603665083156302
-0.02137128992744723
0.02433331944655219
0.03307351727631126
0.020519740291207185
0.10217457847863581
0.015015780803007273
0.042656816927332086
-0.015431900765296415
0.009631799267053187
-0.02814817124373946
0.06939248559458687
-0.06308351390306063
0.04758822868275534
0.0703023098250973
0.01262150527448363
0.028619445592673688
-0.05349721088862816
0.014411171443378404
-0.0461417473322728
-0.012793120223978736
-0.033133271726228104
0.059966495930343026
0.03775211655232266
0.0190955387867988
-0.06763400960947664
0.026515783476086813
-0.01158688912009565
-0.053345400921769176
0.0033371288442703307
-0.014699823711043922
0.0553017901383274
0.04936463225701265
-0.0807498688993917
0.0929947287817381
-0.06601837060520323
-0.04423611107620693
0.017954992245436795
0.049207297464945766
-0.06623660489789711
-0.14250085625035833
-0.034015291320984284
0.02289396596738375
-0.03858839514081329
-0.03338050050653692
0.019685246869663157
-0.05801326968673474
0.006792912546460653
-0.03157749772050696
0.08911909189378904
-0.026778504070737646
0.05339936129647963
-0.12526274863561002
0.031848640521037995
0.06346766298789083
0.05947807639379146
-0.008956471119422271
-0.04413284443723264
-0.03250621461245652
0.0039041454739625024
-0.0009521957671521279
0.02184819260729781
-0.009320812669754507
-0.06056435149298563
0.020797854270872537
0.042629733964395906
0.02579852118494938
0.0759179117408291
0.032804757365253616
-0.03889311341728532
0.03384039885292815
-0.08709051921075606
-0.07003970178433232
-0.05159866374876581
-0.05733443212818641
-0.05237735475907717
0.05280096721201055
-0.08645366692954255
0.05037730452389916
-0.01789124371285716
0.008648297925012939
0.08643452040531424
-0.002178281578355285
-0.07450083464278147
0.012099649295754222
-0.012741194457152702
0.022041891239720376
-0.038827816867413274
-0.01834372808117954
-0.06686299551494314
-0.06927171185855384
-0.023722607479358303
0.06450207554121339
0.008714325302454999
0.05332293127827095
-0.02458381736522978
-0.028906055095726475
0.023262049466944466
0.05091075005982046
0.011047702657241781
0.0026600069884137266
-0.01783462226978282
0.059554521279090215
-0.06509543307448845
0.11513692920442027
-0.04658285435452217
0.08911555191579824
0.08530523308321031
-0.03060485350744175
-0.0043277065758948905
-0.01032009429985138
0.06876361743913803
-0.05793129313002681
-0.00982541757701366
-0.01616451699088767
0.05479779957424344
-0.026266068844153195
0.05083688855847233
-0.01981556559674401
0.02758620920223616
0.04935151366596476
-0.028708111421001537
-0.03493813239266266
0.030797973242309436
0.05326035300465685
-0.018061918399042042
0.007863895214885555
-0.013323544509813344
0.01413897732323277
0.035152986678675224
-0.008662273415326868
-0.004928019359455817
-0.014777632084994642
0.023184462914919067
-0.01722474518019619
0.08277123576809091
0.013526711159494918
-0.033739264874025565
-0.03977354589597631
0.018873671920125654
0.07780701688417054
-0.022055333292341838
0.0075606913536468276
0.06776743950030827
-0.008757816397865496
0.008814105672402883
-0.038180239651187685
-0.07539824454946303
-0.023779963609941973
0.08183693737723326
-0.028393096549652108
-0.025442313122883142
0.053700495130136465
0.0926395209213843
0.49562536677219177
0.9709915224509289
0.5267244709197006
0.18031293802610177
-0.13315526696881785
0.04858328277556577
0.01872170041289863
-0.04316442850387269
0.1270350543952708
0.009445972201449446
0.003515612423556664
0.022106772534399497
-0.005486723915580793
-0.006690456584443197
0.06206542336370611
-0.07831601272313382
0.030431976473896696
0.06048778095245771
0.0008760804605972309
0.06847712346578122
-0.010648260258044065
-0.012356689516372959
-0.011280489045547038
-0.04402979469923686
0.10015915962726696
0.0028955686912949417
0.022737700842791086
0.018103938219639945
-0.06319573549230517
-0.03597459079108735
-0.07625655756241428
-0.018400637749598988
-0.057471087805163024
0.0647616756975175
-0.0635532285349522
0.0649061320987006
-0.009715787774521601
-0.05116329296020133
-0.03806181362745887
-0.014409127527897664
0.036624019580836525
0.02484409950052924
-0.03024261087844505
0.07190000587839997
-0.05018432129880181
0.0846385933819162
-0.02881839605477154
0.039120925491636586
0.023499895971935306
0.045384433003355734
0.024298290017650263
-0.03224283010866461
-0.06647835632707437
0.020926153529895297
0.03364558254124366
-0.04089670354069886
-0.04913065891998353
-0.04733531337634868
-0.012467778213113297
-0.018928675750310122
0.018831750610026773
-0.01544083362704028
0.04381095169537752
-0.0014032731060500125
-0.004814497715869257
-0.032553377101489346
-0.006211605050363854
0.0058972281793569555
-0.11313644134679804
0.006777198609113255
-0.045872034460720315
-0.016946656556933667
-0.005244516971289661
0.03799590195667557
-0.07700659941099244
0.037500658764619686
0.03495910754574178
-0.0021423701992003123
0.032078877346269775
0.03425340136513757
-0.03232924005897587
8.989403715048782e-05
-0.0032581966088470284
-0.05592497147873898
-0.032819336986517844
-0.07432606029176227
-0.014723927919748941
-0.02437878603708443
0.04819819940948867
-0.0844511452097712
-0.0676043733860099
-0.05998280479446873
0.051184058695858174
-0.002017552819450384
0.027247972309387383
-0.04234803857931697
-0.02479318164349439
-0.0314018937505373
0.013209432863265886
0.033432145617706056
0.011011049743585938
0.029829733335636373
-0.03924974364018371
0.07646907522025126
0.06574691563981896
0.04641120752820611
0.058569175672905455
-0.02550005682121327
-0.003180476435606975
0.11699114713517159
0.02783037763115468
0.0449587140222224
0.06293199878759213
0.05147835745816758
0.06864559832807035
0.009307803198590208
-0.05876918995395473
0.00938778280089379
-0.0009450144780667148
0.041108640448505984
0.016251080835001683
-0.018378122398541925
-0.03622586668970749
0.03771907838400099
0.038508111044557404
0.012787143138253649
-0.05556563645646931
0.03438852702151894
-0.07001379365989416
-0.014660219957042881
-0.05254302222024875
-0.01013706749936404
-0.08008702678870747
0.051389401171099094
-0.02155461702349884
0.024770831484826193
0.02487574281521926
-0.025845890333084678
-0.05350765434024227
0.03398763453699841
-0.011831191777139342
-0.11661212083105953
-0.019251735414322735
0.08389328304564636
-0.020167658463535607
0.02505423661488032
-0.023437727850854014
0.06744484950029404
0.07285863137792968
0.04333555209654227
0.02383246847766019
-0.03498330282315528
-0.0861092118528023
0.003175325103356138
0.0029369458155847636
-0.10074223104629308
0.022610506924004008
-0.042135671918199974
0.0143151979766145
0.06290877627829954
0.03580074442522107
0.04670429991255696
-0.02690649848724563
0.0576810436240408
-0.00349156992604271
-0.028780937981850926
-0.03477353035319274
-0.009133532609541873
-0.016997313402173083
-0.008561610509378143
-0.03932326663321269
0.00956285765574937
-0.023504766150752296
-0.04490180668490007
0.019894960676019584
-0.034956907435641914
0.08933229784180138
0.007802081986199118
0.03130366504274056
0.02221597927766111
0.04070960576424212
-0.058622204005375815
0.05105246224352761
-0.0908256948098769
0.029168836347190703
-0.0465469084035172
0.055837049606798
0.026934501601499662
-0.0408471841908386
0.06784935342832388
-0.06250637517202458
0.024733198917656057
0.07612738158654031
0.03890293705372161
0.06200411306192011
0.006679064526479929
-0.11072291895853673
0.1297986396040162
0.4276998851878677
0.9997060836879721
0.4687130218644114
0.09027974412576024
0.007847909689605252
0.03259975905611264
0.04411076115199964
-0.030364469641240108
0.018913149826230047
-0.042076721525554125
0.07697272723797334
-0.031079890255705886
0.09019626908400041
0.031204782888975754
-0.022616662412702056
0.03167981903313687
-0.01923657519322083
0.03436454608657432
-0.08559883370409237
-0.024968594868019164
0.05070274926871369
0.0656443794770044
0.026609265168094448
-0.08320386322942051
-0.037213802188868154
0.02412956247613869
-0.07070350769289623
0.12339852094817383
0.006904062635921585
0.04261453929455993
-0.03573516484456556
0.050742439195828215
-0.017051617622609563
-0.03657987795330972
-0.014729044650095386
0.005631879219692929
-0.024598798359335372
0.10306606985723582
-0.07240117298304512
-0.0206979112426241
-0.05542503388269861
-0.10178739907293262
-0.05266072606677552
0.019320570908947184
0.04392657637155087
0.030737173247772122
0.047627956266178106
-0.0515353851083406
-0.012137015094793346
0.035412480364936265
-0.009902268705241284
-0.10168818644659083
-0.007917088433467617
0.07407136351745061
0.0018657011309677664
0.024726914311819795
0.11428031051435279
0.0027739667994423865
0.013731470070599064
0.016037048469092603
-0.02057790274264159
0.012706545202417999
-0.01186744897953699
0.047861202214673555
0.035580654827053394
0.01846274069023144
-0.1052877753856175
0.07939617033908512
0.10003071634774659
0.0317503863094281
0.010595752751587502
-0.017112893196985696
-0.010918832132773594
-0.004406469856905313
-0.043432173412813614
0.014068514020535423
-0.0005198342378244274
-0.01860347459204746
-0.041255045728539566
-0.031270982709177525
0.024636709494175152
-0.021049164173619548
0.04018199445011173
0.06024150210300743
-0.056134192756302895
-0.07211740312599539
-0.008978015435817782
0.02791723136899097
-0.05343541362301734
0.04671344380128665
0.02801059255968415
0.001608106452281297
0.02139328183692326
-0.018568263918569857
0.01679372151619328
0.02472810846611305
-0.030925765782107473
0.00931406308347793
-0.01840866076905952
-0.025113221962874435
-0.03343490395143959
0.03403526339375379
-0.022132051288817692
-0.01728971879757391
-0.01658845387267533
0.10921779724600925
0.04235010547470352
-0.020168812738964807
-0.03861034682177054
0.03834669646784935
0.028455849999601292
0.010466454870794678
0.01621321952325015
-0.017537014351817672
-0.004558920719746749
-0.0028990090166556666
0.0458850240255386
-0.0673751376839881
-0.02255180829896124
-0.05988035151225586
-0.05976569994690939
0.06569366896537746
0.0840525197928905
-0.049027150799635225
-0.08359276452513315
-0.030734470609684213
-0.0642205557064573
0.06263011416447936
0.0003528019445275052
-0.049574491894317896
-0.0799253577261069
0.08915623174456451
0.1033160575156223
0.02303344892272064
-0.03352980344352381
0.15986917605958545
-0.043919494215967546
0.003323166828821571
0.008882923724103006
0.018928872580326203
0.06272070791815634
0.025437319363205264
0.007885905419967447
0.050110410445616774
0.012404761502852989
-0.0031676564783758967
0.10292345782481359
-0.002215229737066221
0.09636104185288319
0.005683140529035227
0.06378478982051493
0.09721125402707943
0.027611873835208717
0.08428713360585856
0.0169171419471433
-0.05481964155479192
-0.036894753791619606
0.038584609986980184
0.03579767655968389
0.07125778696518802
0.09301920484294415
-0.009827303437511321
-0.006631398159789675
-0.021918686281654307
-0.01388918525411213
-0.01697671854361205
-0.02688447125124991
0.005799843496343437
-0.011635694689736437
-0.02135055676957332
0.026173453370799345
0.04929204384466793
-0.022158485722523553
0.06616971342197475
0.09406059646584992
-0.016759495923165786
0.05241648216643483
-0.04093719747312184
0.009273017830084237
0.004868061919781231
0.021296754621658386
0.02003611470779139
-0.03868297562157099
-0.07688495701454172
0.08729054198953755
-0.039848606649706395
-0.001774266178302264
-0.038864669280123255
0.06017349533672498
0.018989601409574373
-0.07110946189384312
-0.028196087908103663
0.020899007886214203
0.012247451713620818
-0.023145971925546405
-0.007294306348791659
-0.0072546958230838045
-0.04896556907188786
0.03118885849879731
0.048363184854094264
-0.048904868217862905
0.0794662939965069
-0.020182983074866725
0.11571074872413248
0.02161468440867237
-0.0007765315121580664
0.08769688551164975
-0.07379624444782006
0.05943519135278862
-0.0476769769266312
-0.039159018703303836
-0.04564091122370345
-0.07252361896574938
0.022561942075511723
-0.00048741833979686305
-0.05113146020133377
0.06434332664620172
0.004279953314455111
0.05892055601155166
0.5372620222976605
0.965086958707872
0.5126824273822163
0.0833564232581942
-0.05848731769925704
0.03016544156941975
0.10815006035275482
-0.09862743534731999
-0.007020535310976715
-0.07671967497179323
-0.01697819870279653
0.10418102901526438
-0.04346751467862401
0.011109449778010533
0.021612152031905273
-0.010192626614690687
-0.13280114085046407
0.037676556088312135
0.0035501641442351366
0.027009619357033207
0.014929340494039142
0.012129680270560288
0.062035891830750624
-0.025965152830978167
0.07924007363482806
-0.09730244083419519
-0.03090648473532477
-0.018099092112705537
0.04448275735793679
0.00015547301004994722
-0.05260569637780269
-0.04341028229151749
-0.049381242667893274
0.04688078365888303
0.050906828710258194
0.007292590634755353
-0.009082579282829469
0.029267771364172687
0.01524741713507877
-0.04092355305798506
-0.04996938694292178
0.0040998225097691006
0.07160105747036413
-0.030785465472038517
0.04759006214337075
0.05472581010091248
0.0200906364279348
-0.01811274549694371
0.01773709393229749
0.014738607468952733
-0.013256737418316074
-0.000668470260019801
-0.04120621583000089
-0.04235533404352352
-0.04867393241325316
-0.04132460754710884
0.0357234785064147
0.0625299050869523
-0.06027285257299708
0.031195312735467814
0.09234980604675744
0.0035001133260846393
0.05091894827288312
-0.0036644553094582082
-0.03318953061561873
-0.07178423457642584
0.01780921921627353
0.01565967760843401
-0.015993430221018592
0.05322512364219191
-0.022748141784703746
-0.05577745986600238
-0.02611557908229722
-0.016997559526819136
0.03144373293365942
0.07287689751298952
0.007135775498235419
-0.02683311005124417
0.01420828905291239
-0.04569764512353062
0.011880370449782652
0.08605380863170264
-0.08387104459882071
-0.04412655391420652
-0.07685403839021909
0.06320359985163362
-0.06815600948844797
0.0009834622234382061
-0.003250990486968729
-0.03248512568716389
0.01810092444490013
0.028114229347324507
0.002894129294424456
-0.07395192804330691
-0.044044463313869055
-0.0300282570437795
0.07466136884691717
0.05659095122110147
-0.05718156548640644
0.006310000975075077
0.10773205247676221
0.10566575401490597
0.005823034778039368
0.006727177888733719
0.07947703297132369
-0.05560463476658481
0.012582463568388935
0.023685108997833215
-0.017319509878790305
-0.11775617898444118
0.006591442257134875
-0.0048520176702292524
0.010293044334629443
-0.039755493192398066
-0.04895394287314078
0.015131893903997554
-0.02957813307022654
-0.027775918108514167
0.024983209887533834
0.04996024653368541
0.007224085269393509
0.001317146371218263
0.012168631026804433
0.005731126183269674
0.06679492355040771
-0.012006700153014463
-0.04884638518987734
-0.048876849535752984
0.012091579240250996
0.01072790904377282
-0.048507974377290146
-0.015180560124360983
-0.05141135431468052
-0.02707311367901499
-0.07201523056737798
0.036094060472235207
-0.043151543433624436
-0.0059219013836925675
-0.03009127437633923
0.06315381550196487
0.029942681452825887
0.04774108335752388
-0.038635633323334646
0.019258991427437314
0.02688559720121544
0.022727021448325876
-0.014450674234949897
0.043034407579613805
0.03993556551142227
0.03815711443622305
0.09169525783686401
0.01124071098390199
0.044681560277195206
0.03734309970610488
0.0428530777053546
-0.004269606798968992
0.03700348353126173
-0.009574136040076451
-0.06312311799792157
-0.09811768116784739
0.03242769273275772
0.023584706633082236
0.04111841242259838
0.09497576789146067
-0.06491099216425902
-0.10134258512585977
-0.0766231706928303
0.03658819437827561
-0.07745122884864301
-0.009412886735254847
-0.03576312322604074
-0.05879640109352329
0.007184817108225466
0.015708116383932654
-0.03329824786757737
-0.045987442444793865
0.024684099754672867
0.018934869078238076
-0.010151945280926063
0.014175887723987252
0.10595973521697721
-0.010652061485060215
0.005883054573201853
0.03105563816641312
-0.012552984286347596
0.024897797703710187
-0.03899374118603363
0.06805335717881553
-0.04662712324505969
0.04522418930823978
0.05756382152113154
-0.07779061950129171
-0.046879518994886
0.12777709080128602
0.5488850395891512
0.9278146822757822
0.49053671864195997
0.14374274808845477
-0.052163130295739414
-0.014023638884982363
-0.043144906079535306
-0.05524955963205483
0.04263778530388451
-0.011352403777979287
0.015030878996312155
0.061328702973691376
0.03573528332658444
-0.031490933676778014
0.05342553373646717
0.028677602491329324
-0.008681428049856034
-0.09316323548854395
-0.0030062354491772417
-0.0659794345810387
0.0016933671444706831
0.014262528291412828
-0.03134844310254164
-0.03138349180354601
-0.006464754164287838
-0.027313333062820123
-0.04667352137357371
-0.057002933175409144
0.05326502691335964
0.07530880419028285
-0.00773619890832753
0.028157597729308204
-0.053684397885753334
-0.05771454967459382
-0.007397754372283992
0.029783332612359936
-0.006929487144830682
0.01484359206256787
-0.00843653078807926
0.052458326950046666
-0.015854476509207845
0.13221293201123185
-0.02518820766646735
0.035540533582880174
-0.015829256851365787
-0.0265578537101899
-0.10936425451931293
-0.023728390181333915
-0.03998005237923749
-8.16214875896782e-06
-0.03214754769801491
0.033832325832450966
-0.023918373828315454
0.015327457668576978
0.03774843961516105
0.011370742089691473
0.09537471194356406
-0.050351645308579565
-0.02468355840116869
0.06847905243563684
0.02734252073482812
-0.0497722809367358
0.03371224590711718
0.0555147042617509
-0.03220744345601941
0.04928565509776683
-0.0034082370329530905
-0.012398102025303039
0.06540358509422671
0.01066476838607196
0.0024460471594676333
-0.01743922734256658
0.03787053888201983
-0.023049716679998035
0.01563055448542237
0.03398418923164227
0.009952492199662924
0.015198770296018793
-0.10027576967777418
0.05434797368640233
-0.11929262133207821
0.07449579715125135
0.05225103410879928
0.00636974156719041
-0.056887999612669084
-0.03441810244647692
0.005533655091208806
-0.009040599647085862
0.007116936370482857
-0.01917675193668243
-0.018547536432873192
0.015118921059822566
0.039880192833546366
0.04286029245097575
-0.04943189281594634
-0.059474266865179204
-0.07707039589701958
0.05686219057593415
-0.02394505972875356
0.029008819965416467
-0.008245821871126786
-0.10377661502142732
0.05783177582281174
-0.007602715888626044
0.1729766851212331
-0.021403357240464903
0.03981349164407689
0.064879438238163
-0.03555190993786398
0.03448838469654741
0.13722276094688515
0.060732590360713684
0.08238893991308772
0.11917124135746607
-0.0020914906408150947
-0.011904430367579717
0.02277356235350944
-0.0369925404427524
-0.015892495171111562
-0.02845674994083088
-0.06837931995510355
-0.021501825197451474
-0.04131586221508701
0.011029832416863717
-0.020620057672976057
0.022964362548789023
0.03859406333305361
-0.08184451188594566
-0.0065914173361718694
-0.05794302099790741
0.0249589386509471
0.018221428407200466
-0.012073366760010314
0.016354335422251173
-0.04766865674680247
0.0051044658202281535
0.011848116204941849
0.025682753423512752
-0.003600385685358318
-0.004067193431205168
0.03681799240388497
-0.0067224520746202625
0.01885234283657169
0.016653607260032236
-0.008279512446537013
0.005065913833644294
-0.039943631103222944
0.0070291531727638525
0.0037200749605266884
-0.05893078996632515
0.0076611242525034375
-0.08581017845072092
0.007010421649050968
0.009760826023960615
-0.03445867168897297
-0.023108528941579793
-0.049331437797883876
-0.00046233328378017416
-0.026425539916679286
0.04336571675327522
0.02507868613254929
0.0038472287049652965
0.00925882175412851
-0.05799815985170736
-0.008320355646442188
-0.05289252885736881
-0.053079771801542996
0.08777978508842131
0.09801351366842882
-0.06797846072598486
-0.022482592531418998
0.025675197963652016
0.02767469821952322
0.020599052501851598
0.04482262774452234
0.04768147978319734
-0.0231259059016
0.02894957305868945
0.039783894411000165
0.001322628853987414
0.09006453031787415
-0.07450637330291182
-0.06485229384079708
-0.02394443909731606
-0.024523614354459322
-0.115128782749071
-0.04470033134967558
0.012247924963495811
0.03499746038121861
0.002859107693849431
-0.013980952611375927
-0.003190262339215392
0.052817662993058026
0.0684148110772326
0.019294475960154545
-0.009884632915078235
0.01687336435693317
0.009760697136370601
0.12854520810194553
0.03522006678544839
0.11036798516819045
-0.014426251281529832
-0.010950370936713003
0.007046614720761502
-0.012020276879361864
-0.0589063569200859
0.06311185930260534
-0.002760385546464984
-0.0018010594382026448
0.04583590739248691
0.03900429817356127
-0.06731480963272023
-0.05319082945004941
0.028871011466017022
0.06937810163358778
-0.050734320365285294
-0.0037529775307272428
0.04706536181381074
0.09107662783862515
0.47344170435403676
0.9475949460005904
0.4821944127386501
0.03486601805936211
0.05906440298822677
0.05383477822059113
-0.06820953866327273
-0.029685103467751037
0.08027136397519606
0.052828261400819004
-0.006255865135608993
-0.07178810936803881
-0.04966354362924539
0.03057304296470553
0.087447803460574
0.024574732365456448
0.012757345951837171
0.03955662229954676
-0.08062226661366506
0.014754547876931846
-0.07992740542450119
-0.0974888264799096
0.011133754856094835
0.034658772651459356
-0.0681509521273138
-0.024945843396823052
-0.026902566331079993
0.018251926665300688
0.015608477972294012
-0.023239111732593284
-0.048763233545442874
-0.011305615359359169
-0.019078102602841738
0.029922683267803375
0.0008754529196093428
0.050076001528708974
-2.073135198586234e-05
-0.002385597738479052
-0.03366296562989584
-0.009170152369516248
-0.018855031952957724
-0.006930090545295201
-0.02349741077198646
-0.09352816139618723
-0.04321158781124645
0.029884223974362897
0.11558460377191876
-0.03472711313126143
-0.03331130457482679
-0.08079461258149029
-0.010476895708923104
0.013020013369734346
0.0018944781115644437
-0.0013973030555412215
-0.005707562579106888
-0.03925214892790499
0.04506517396340285
-0.07895517294344066
-0.003814872823951731
-0.035752091252925826
0.018426522694333515
-0.0031532438026710113
0.07641067838114489
0.0034730936253519716
-0.06902895693052938
-0.0021939449633106797
0.00993655293356706
0.10960589682776961
0.018867936711449495
-0.04417390396443355
0.05176346620579131
0.07881276505952692
0.012246993737119249
-0.06452614002308693
0.017129198899064682
0.09038199332514138
0.058427562834352756
0.0979931659012788
0.019007738650865465
0.09490099800004381
-0.015446545480201962
-0.08667180232365587
-0.07857512481127904
0.05057345970358258
0.017349652222936367
0.03159280625101883
0.054494347215204665
-0.03798582669335013
0.0572063951870517
-0.08436980026064617
0.04286727492659411
-0.029788017700610153
0.026742063455894877
-0.00823144053932551
-0.030122232821835078
0.08802320798770359
-0.013110912532788635
0.015543528007169108
0.01778761198685662
0.006920959095118634
0.051231931125072905
-0.008917091397149654
-0.10380159398241717
0.08653609175076021
-0.05465816756143679
-0.045492141334050586
0.016769317485063315
-0.04235073188166862
0.02654962732931171
-0.07323042891463051
-0.02252197087433343
0.025371675963586998
0.03493021807143206
0.005255680102567195
0.0632023875690109
0.00011207091713578942
-0.06604051477692956
0.019191255347294715
-0.057842226181424296
0.06200033093087984
0.06850639069878423
0.04036705158136773
-0.008868544563137714
-0.04235200254587712
-0.041168685261117804
0.0847618882565675
-0.03442241168293316
0.03788824853565041
-0.008523177532092514
-0.02627089204788154
-0.09966145319089127
-0.010789571912702786
0.11767664968031227
-0.06685766819254857
0.018746247309707604
0.011956725117121543
0.03390946830664506
-0.014864316319235482
-0.06987780707479878
0.0372228558841833
-0.04394797286942622
0.02787621071984564
0.0209879130101843
-0.018282786877029028
0.04521717038295582
-0.008495749043159617
0.04345721264987968
0.010491672488641033
0.029389407475224956
0.0038834438038308147
0.002749615921604025
-0.011328249036181931
-0.04299358937963043
0.00011293517009480299
0.03519702456378259
-0.03703976208898171
0.05168271317713394
-0.05368522940724088
0.015142219724531534
-0.031674957024784574
-0.016768893936200523
-0.053381294509371326
0.0293890213492985
0.01780611808213563
-0.020768638291142158
0.08670294236867113
0.003947430816836079
-0.1120251862133018
-0.023606876730210388
0.04329638264801051
0.011889171332169615
0.008300965364317058
0.08973570824332372
-0.027608606761552003
-0.028734111952832583
-0.0120142821514179
0.030126861467533236
-0.0636274730773306
0.07939105433118113
-0.026879284877088475
0.002714824248001462
0.052967701741690965
0.063650450726624
0.014226581191742308
-0.007904679133431148
-0.010342213581957645
-0.11071536246186862
-0.04023093467347764
-0.00803157537423706
0.02760808394949046
0.0148042070213634
-0.032880698791735954
-0.07007506076581636
0.035670541637102184
-0.06115826346511142
0.03630836847062269
0.002273814987763715
0.000990952715102688
-0.01913913115031926
0.027361392554137318
0.011622419074841463
0.022827300056677397
0.040309113553567
0.03330005023076085
0.054382093815835864
-0.0318796238931545
0.038631872436985557
0.0427300719404863
-0.0787832021208585
-0.0016426221151719896
-0.0788590316130453
-0.022378820781616085
0.156526879658173
0.47906004713369904
1.0737742193887057
0.4743916105357906
0.01777976124285202
0.06549431099757384
-0.013733063159349254
-0.023631064680466565
0.022362359333247976
-0.014207314794126914
-0.030063203666513806
0.0028028148430927513
0.0413304326423837
0.012382648818949467
-0.018565736170900633
-0.026942279098917263
0.005039975882451075
0.09379109262407671
0.017148710483627184
-0.028146672062881337
0.01937761291670799
-0.06544912821960004
-0.11567830282817078
-0.03741547130179173
0.004578103163086072
0.011787773152813237
-0.011872561908602216
0.03887436728702468
0.0061192948237248496
-0.025402201425837975
-0.04238592138015361
-0.027398987721648338
-0.004570823325576524
-0.027646788618000236
-0.05215901674433793
-0.10078897054324404
-0.05800412669240861
-0.05255798473816523
-0.07167007527258068
0.026273453748545575
-0.040138950303202935
0.04706576920033287
0.05651902746340361
-0.014515274517100366
-0.0008877234661861539
-0.007244624165588451
-0.004059496075967348
0.0637037530817399
0.032210336470752
-0.05225880226522253
-0.08767331495387215
0.0532920410550491
-0.07950622067308445
-0.036812878180107325
-0.054339187157444624
0.028225072408806465
0.09454334907453348
-0.0340570486756472
-0.05664115715604137
0.04871155107604461
-0.027541574927770002
0.08607112576795167
-0.09145979021758215
-0.04689891442163688
-0.0498585210907474
-0.014428229523220985
-0.000717601496223895
0.008632411817326466
-0.01155395575966667
0.00020001834982979853
-0.011867301959033471
0.0256631709260758
0.07772100870591722
-0.01775026115586611
0.020488794815177954
-0.09400862578157258
0.012085053831727609
0.0859925344653006
0.06251322051934824
0.03185438943209334
-0.08214495609049138
0.06569383645759397
0.08296677592514426
0.02049518717018011
0.10963608983676568
-0.11516934740232168
0.004802195224433469
-0.05778678704261614
-0.01818218899307426
0.007408797746496861
-0.028977594500783257
-0.009161044305011896
-0.1243918900363602
0.04238545682818528
0.11086341640269655
0.07552463816412074
-0.022126917119492967
-0.029465591592799635
0.020281731349479897
0.033527458703245396
0.1401993391621195
0.08906962297724291
-0.07097651347469536
0.016034991167304682
0.04310492060277919
-0.0030471131283759194
-0.027630692120017383
-0.005608258082665095
0.06191253735563952
-0.039543405378888924
0.030269463746844597
0.0031696458893428073
0.016613619637671374
-0.042308648474158383
-0.014340960580697275
-0.03393344002365589
0.01667357476674994
0.03650066195287159
-0.004289114268305692
0.03175737787396903
0.046597755762020215
0.004806633276735467
-0.06851810962694617
0.0031113848370003527
0.020516977897340697
0.0021081878085438756
-0.0417215212620321
0.009895253206494883
0.04114307536505553
-0.02044306565866865
-0.02324119088648033
0.025032721275537406
-0.043043125339040755
-0.03520602024009503
0.013955613224722496
-0.08633262044471093
-0.011512972459162227
-0.013079248817630089
-0.05742513760935626
-0.016395989275588708
0.001518711178733314
0.11301853742551622
-0.06235145300855771
-0.06487867833647835
0.027582874112412944
-0.006589151610414276
0.009414853491056897
0.011234517416407323
0.08760267948125561
0.040131774796670905
0.033867585726407884
0.04115855605187734
-0.003739348693962009
-0.051519801509988
0.004334943581775946
0.03638484947794569
0.03133734672200859
-0.04538108476065114
0.015642056312556222
-0.12977410679777865
0.026894457540448443
-0.030985878618376806
0.033126412530242115
-0.01852367217657551
-0.04743600773699568
-0.01436607024938956
-0.02982354909220322
0.04047755913331985
0.08106872363476747
-0.008849869416677736
-0.061617792530655316
-0.025974577727255557
-0.07604038897489075
-0.006893583221851453
-0.0033075595214015654
0.036824136172469886
0.07942289697872823
0.058985928599594
0.047918599936833096
0.01635115150062857
0.007632246592761852
0.011436725844249061
0.06012963392414775
0.013207180012015811
0.04177494734000879
-0.05027162211568144
0.002402838691277772
-0.054285199958805964
-0.0430381987617217
-0.04451918991760262
0.03864755970549624
0.013246651758078438
-0.047883354261565286
0.022909145148851395
0.1331247101477858
0.589476949833738
0.9577183899961961
0.5180602370003361
0.1883079450803386
0.03824126408938883
0.025901436210835318
0.02379539847488513
0.028096671429446343
-0.03031067188157731
0.05397322198052669
-0.0671031485585223
-0.10557392890069078
0.06702140830059358
0.014641855463072818
-0.03480066007445633
0.018217453600675372
0.0006156303931372507
-0.03228377518298085
-0.0026078161532407775
-0.012743568959682636
0.05555951328449126
0.02573331570991357
0.03881891511968548
0.015453796745615297
-0.0006247379626709859
-0.08435083710441865
-0.0995858533870046
-0.036358454079570474
-0.02838137125211353
-0.042009529608423773
-0.08465588823657268
-0.015647472569073125
-0.0871261033895975
0.022878757668940375
-0.06980430512402568
0.028511377064057798
0.053407401266923615
0.030051766302755065
0.09022450110051208
-0.0002575691420371305
-0.014034853359188923
0.08929885993896888
-0.07480346451561426
-0.041218641754326935
-0.03245330739033532
-0.022632985864839902
0.035465487361301624
-0.04045147617093637
0.011895843590594056
-0.026667359196226433
0.03567037166304217
-0.023251223459265447
-0.04106750880539661
0.031975897279085
0.01890566044117674
0.08342265311954057
-0.024195154415975112
0.011091244225613412
-0.08221415789994163
0.008538206568795908
-0.0023860563439826892
0.04346831717074867
0.0017826428783340273
0.0038128293828363366
-0.005705324137869904
0.016193252255515662
-0.059587681599919534
-0.02041360364217391
-0.05056132978662863
0.04365817454911172
-0.02703830179004888
-0.07386700465825914
0.045273651794517415
-0.02668589572659536
-0.08854009588083651
0.039518115821450484
0.01773510893195605
-0.022283417488718614
-0.03995156934392136
-0.023075421261101597
0.05610200543644385
0.012934817712072114
-0.01911926583538945
0.011049561618300112
0.06424510904940113
-0.03696396743727092
-0.010712979085157191
-0.04889791524331699
-0.08300520984728221
0.018030793210082892
-0.0004253012719723317
0.028224942432791136
0.005286756377275998
0.04814882396489639
-0.005337835713173841
0.03579891692065414
0.05898807060800163
0.025574091733471395
0.004054587148030054
-0.0064678622713666275
0.012452744865712453
0.06443645358386672
-0.005320896148177681
0.041507963128276176
0.03353343860611832
0.044885425905652865
0.05125050073585692
0.0011669564774912703
0.024960431816792392
-0.0808608774040378
0.03021144800337819
-0.019428288399483344
0.04957783009967336
0.03233250130946536
0.0034322852263683466
0.04794780453054627
0.0036481129868803294
0.015747206026523904
-0.024671613936263888
0.008252229685507139
0.022703363874122306
-0.037530760874829365
0.019559745039831683
0.0040794813563015215
0.05660213293904864
-0.022260503508523943
-0.039932153234862336
0.029684965003324668
-0.02322911774055962
-0.02244238272880548
-0.04907256067796459
-0.01700327671488089
0.01918041199197134
0.04183997460565764
-0.03156331555257633
0.07933906830925236
0.032153744070951784
0.06440121673158407
0.017215756528788387
-0.006934640798925922
-0.1455337737303831
0.0074723329988612645
-0.09361632123446398
0.0720031495311032
-0.08235243902469017
0.07104934870191866
-0.08795217560841123
0.02260150783464464
0.061737125286901263
0.001371805281252799
0.005973870994508391
-0.04623015291971349
0.017010414383953683
0.015604670994374735
0.04424243765933597
0.1031267446992372
-0.027686708713615504
0.001682553271484506
0.06546221791028578
-0.07903316659882674
-0.04806963618501863
-0.033127596620203585
0.025013903825335432
0.05257952059485014
0.011542224425285054
0.017313486805248416
0.004880632473384713
-0.038366709413532166
0.10532257832957424
-0.00016317933641992962
-0.0058680538668256605
-0.01605395670353908
-0.004994364343677729
-0.05860033270678024
0.01375659328986053
0.04337351862783225
0.032015058508424586
-0.06607567720867341
0.037622577140393874
0.12438034864072617
-0.02768589291788582
-0.0808291095917454
-0.07211776567008456
-0.022402468841561177
0.04757594446753044
0.03025059445053634
0.019932623009480812
-0.01144615288853789
0.02249664762019506
0.019483429964704743
-0.002015323902691656
0.05106590621819046
0.025537488636439523
-0.012171246595147534
-0.05009866057231626
-0.014717858605029516
0.0026279088779460878
-0.04570679846280684
-0.013991782453733568
-0.041812740163457665
-0.046448151970173684
-0.0787468059995462
0.004629367523913075
0.08421892890390277
-0.04877825605015561
-0.03188339777562831
0.02721087832045753
-0.0008473391278619839
0.13208812261324274
0.5148906958776293
1.1068428598180244
0.5257030595660134
0.06556149145545259
-0.022332423688769823
-0.010765434728837328
-0.03803164875956296
-0.02888060638890559
-0.019939376420101476
0.03751713124332397
-0.05994776222149473
-0.013650539296038183
-0.01745244587684692
-0.00554134286897815
-0.027477437455160014
0.017013920803094437
-0.05285466619599913
-0.07165560917882244
0.027626954140935946
0.11569918639607078
-0.0074766804194093
-0.0771758995428069
0.008237843539451372
-0.01596392352909921
0.02510099403265899
0.07633868721483411
-0.016079477805482002
-0.08178009786980212
-0.023538846858113027
-0.13830923239921186
-0.05503837539257265
0.047172772102842105
0.0026158275701354907
0.002410178247405574
-0.048835967029906356
0.007575869553920671
-0.030966091764666748
0.034915938246588306
0.007456537766882951
-0.021190905993135736
0.025573521571540678
-0.0561070726828279
-0.015303657632180168
0.03735487421476185
0.08448160755845649
0.019821927614954868
0.03992266042419429
0.04029646682696122
-0.10142870550787858
-0.0473610987715513
-0.02083563331617527
0.044462497081784264
0.02773858420189664
0.04588328153257689
0.07721429941476995
0.027665048190341525
-0.04943875534017203
0.05223077172683065
-0.04569244999627795
0.0023495111825040083
0.07434858977652925
-0.03141778728017191
-0.1072337810164141
0.0024312663935469885
0.0071370484028431816
0.03920979354646764
-0.007840247112744787
-0.08804334153128486
-0.03291471742000482
-0.018429443266848363
0.06541033049970935
-0.0735183123603174
0.017123859365818905
0.05079180316064944
-0.06897360421149132
-0.17762394958934344
-0.02416630658359387
-0.04595607399923375
0.0004991604578050193
0.005145257199230604
0.07161193181945678
-0.08648771612858208
0.03465862130413415
-0.011354991906725904
0.010632577112936172
-0.11928080292858596
-0.0630690027340821
-0.10251735700427062
-0.10008060560748287
-0.02805528633457187
0.03199279421309471
0.0006964625340135658
0.023584763610022864
0.044994227318697885
0.06952971187961403
0.024970332943966066
-0.00023928149839277086
-0.0711257540823019
-0.006942041992218734
-0.003939033589398564
0.05538547042397255
0.05074853854713551
-0.01751981713326357
-0.04614168715367457
0.06799753523761638
0.04179115269857795
0.031401392116058684
-0.08360730015460446
-0.07504838864691885
0.03885543685854413
0.06632288577650564
0.021694112634721333
-0.0658516701965182
-0.05752313315002808
-0.07673586796918269
-0.02839422307031878
0.048474662696249865
0.020131471865458366
-0.03854415449434257
-0.032057202089958055
0.0701077805499563
0.07675483093044494
-0.037154510487621445
-0.03981559244620476
0.011518389582106
-0.02198301563552267
-0.008293893754851204
-0.060889939348681005
-0.04834168333134249
0.018568642524799322
-0.05086267097693284
-0.03251064230604086
-0.015273444545536972
0.008859015047644933
0.00020848879620986253
-0.0005749321624572511
0.009907914700379602
0.05452720921450871
-0.01425906656758675
0.08122618951816796
0.023383270304574183
0.0925920982620772
-0.10059834990332198
-0.04152644202129538
-0.006074546284504976
-0.13749177020236134
-0.015430770077403145
-0.07912373866523244
0.009137812792144847
0.02146458174877504
0.05328448588427875
-0.021339375799357102
0.0738677620080327
0.05883197946247423
0.03911450884094859
0.04194398569575261
0.0034605988827006344
-0.029556268067029014
0.00682200677742398
0.02028094955444576
-0.03242070697745492
-0.05339747246984951
0.06632964974074104
0.0029432326906257823
-0.13971397090357787
0.04041496653732224
-0.008817567199352302
-0.011191302272238943
-0.03016109283767109
-0.04054066605884359
-0.038585977365865026
0.03472487256021294
-0.04520941121959296
0.053830888582946615
-0.036453775193924905
-0.09809263685419148
0.0549778954355891
-0.09274033581067966
-0.028866895969267392
0.009173404486157482
-0.0802342526147121
-0.08048841837822018
-0.009917995723366962
-0.012444729862552519
-0.048378270362261694
-0.023742576655755045
0.03178367305409799
-0.013266638034433962
-0.06080167748165023
-0.15555842934959588
0.04057706455569774
0.03844103691300863
0.024715555690327667
0.012676791242326499
-0.06289534582681335
-0.07328185317271803
0.03893096324621834
0.04969286238105543
-0.06321237837996146
-0.02149934620945643
-0.04822212854555363
0.12090487660747999
0.42794827504393174
0.979330848968463
0.5365747633594972
0.051412702611218324
-0.05674372936992648
-0.011811932813868756
0.014529735944300287
-0.04592804760626304
0.05232515038816718
0.01662373904420619
0.04596401402315131
0.007160141574973801
-0.018032020118511044
-0.00011529443593889194
-0.006019410709785648
-0.06366493165377313
0.0033156860384656577
-0.04147615363268484
-0.0741686277554359
-0.006844617877065554
-0.013744088125380688
0.04057739143256564
-0.01549027664674775
0.042201967076517195
0.0225646791536997
0.01113075608631859
-0.003916953965293106
-0.06575709917173428
0.001844666421639593
0.08901393510031651
0.005408885897188968
0.03450575668721225
-0.11610424294535378
-0.058165923027406245
0.06966343319015926
0.00167903477550832
0.009084386091804232
0.09150116082668065
-0.015189075903825212
-0.05322068570537665
0.01674541642870479
0.052320530010813104
0.03260010146893486
-0.014706041583599328
-0.04797554787451605
0.015035297046157756
0.005283163105046033
0.09993975585862942
0.025059678436070983
0.00620198082815436
-0.06086543064291699
-0.10631794101730435
0.012673263928281095
0.04972563926229944
-0.046912836313100656
-0.010309332449189705
0.06051293361180341
0.031241318490581996
0.008866123764241247
-0.005695437602126256
0.030738821325091543
0.00873653111147636
0.08389498326549183
0.03298548603046016
0.026496675957122774
-0.01770195373907969
0.004870845201614089
0.020507563174168898
0.07444831992606295
-0.009339942832618782
0.009918178998852615
-0.12066514207964806
-0.09449137208293906
-0.04564064588819753
0.056568750845499664
0.011990794016581279
0.01147165208036733
0.01969567546803609
0.11261721783424128
-0.01824189634492692
0.01923781920520937
0.024217598241325345
-0.01939304539589962
0.08709531657752373
-0.06412696051968678
0.035413244512711994
0.0905445014098437
-0.014589653629340197
-0.046908176976424173
0.07081228988555888
-0.03690940214358172
0.09360624215102065
0.005896045902804816
-0.022828820419815436
0.0019932800227625094
-0.055618470721083384
-0.0004280364032117753
0.01711265963325478
0.053099975206246056
0.06711281316726213
0.07755198007114783
-0.08455939205056238
-0.019195934916548883
-0.0034746663260805605
-0.06794225948197416
-0.1021036928923636
0.09773589203235067
0.05428906948527928
0.08751005804301731
-0.04336466228243677
-0.020531688696319935
-0.037757343748063554
-0.04443525335284193
0.021836468184843152
0.011546182483985106
-0.018980114938877145
-0.04783455991233787
-0.06030055661000281
-0.03991991081291207
-0.020638995047308473
0.010159382480071257
0.029745110842446278
0.08004301655727097
-0.10498476602496172
0.16530557757750153
0.05608523894519976
0.008920240627289017
0.10281156805735847
-0.007113972629548224
0.004289290352200016
-0.04011404656981306
0.018687840458324313
0.0010229053838022226
0.0018654471775448195
0.04285862070229833
-0.003228200727757786
0.012112915737210473
-0.09320216447170007
0.024338374103260715
0.08896963937402902
0.06477900019771118
-0.043166906210887944
0.02275365749080993
-0.03189750837743657
-0.11503379819356441
0.033301091599967296
0.06464515330313127
-0.10095145287119599
-0.06417616236310945
0.011738155614470055
0.07655876446316873
-0.028782872052161176
0.021657224585191315
-0.020544127015221444
0.03332911007843924
0.00712815656328355
-0.08098193450702328
-0.09461694927903908
-0.02411342994273795
-0.058640607283237105
-0.04528274142019306
0.08958979293106559
-0.05070857261345697
-0.10430439879780606
-0.09194284341600784
-0.0777821173863161
-0.011581268090146597
0.07983876823561065
-0.008194007421753866
-0.06971324683536316
0.021366588181343658
0.023431524691759215
-0.012526079805456196
0.0942824991746381
-0.10693519633631687
-0.012580856813077504
-0.09471603589113375
0.023011578474742507
0.021771830927525316
-0.08347513228184461
0.06526417106800349
-0.0037333927981482926
-0.018963978890057784
-0.002625223575857964
-0.005269175741734843
-0.02179226422155861
-0.11656241613760497
0.010377943861421442
0.0611415282080765
0.025511460275947598
-0.04323770479680379
0.050471474254204333
0.035583419588908385
-0.09384529229754446
-0.021802761275658663
-0.009624967963961992
0.07916905888320779
0.08227015108722524
0.03382722443243016
-0.0411264412647524
-0.016309921510385666
0.08800524219169524
-0.029529834991042694
-0.10176924707566706
-0.06872070301537787
-0.020668022102816
0.00792411169374573
0.05179379255973063
0.007754899533373299
0.031775729548753344
0.05542983097250707
-0.0018948732952362584
-0.03729857744594382
0.04355794295591178
0.05491734080059993
0.16364422660784295
0.5615525335211311
1.0287070844111585
0.5430424145644509
0.06958682022510777
-0.035845225443512735
-0.024879295879407574
-0.047922069996237444
0.07638951509328279
0.044389627672708466
-0.015269040409891394
-0.0778771413045095
-0.049280069331097485
-0.06519141660645329
0.04624996457685135
-0.006060351591780238
-0.039093336011605744
-0.014778882685422767
0.11183970176424074
-0.03180841958730085
-0.013311923580445726
-0.020882794184818063
-0.040488654260778405
-0.047069954235905584
-0.009197128945905984
-0.019038006576517583
-0.03512689871727567
-0.07235607610444238
-0.09485980014159455
0.06608508874944848
0.07881509047626915
0.04130211879829982
-0.032090109966426104
0.006740610907721824
0.028589039263260365
-0.033649933305841796
-0.02497439096963755
-0.08266483473241672
-0.01431656991534023
-0.021467180394334966
-0.009693015618884084
0.008818792357388304
0.0723664429033604
0.05515353277828072
-0.00745278875455347
-0.02575702481802792
-0.050761314643528156
-0.011388566840868653
-0.029010523927013705
-0.025770283730992438
-0.07101270125664953
-0.0869673472398675
-0.048310451666850274
0.018436918382367627
-0.0652681485691994
0.03368219842203073
-0.05750555388308144
0.038714106151718275
-0.027908794378286934
0.06037931359181667
0.028796281361363432
0.00448078060001233
0.008796277799943422
0.011478366781548446
-0.06191987612444819
-0.020125690847702854
0.01675916248075911
0.02514815570425499
-0.01695042611038083
0.1300528535629729
0.12694060603407348
0.03461981650078008
0.04908731615952572
0.07297672675194954
0.0007163906484789074
0.032679753455636236
-0.02941653662911783
0.015158937906973141
-0.03587156772723561
0.02013165520260519
-0.030460315757710688
0.0952406484749923
-0.03800823109795537
0.05428994384670821
-0.07533813376644727
-0.03934431631862734
-0.0037297873494156215
-0.011504808147372673
0.09853625213181674
-0.0014708271373301551
-0.0902760327395558
-0.03212426879334969
-0.0548657252240157
-0.025620536908736655
-0.012371297261009537
0.05575210113389374
0.10013721635848052
0.013412249174416236
0.006888413021855242
0.01572143744307752
0.047481859992890035
0.07100855049811332
0.042064397003244214
0.017163236561636697
0.05330034296166323
0.016148777607270928
0.005975619712662867
0.037069540328932914
0.02892791574044762
-0.06395777713003695
-0.013921108183646815
-0.028465064333689196
0.015708054274719545
0.05081874983291479
0.054730600603584395
-0.02877180131271197
-0.06806927805327152
0.17528954480244432
-0.009729484527141697
-0.02573363063571389
0.023486789136627693
-0.033535399388952176
0.0625171604191774
-0.03349431491233829
-0.07078921680929087
-0.06434261590299294
-0.027793472171915842
-0.02840433704505111
-0.010911879094855484
-0.02033094843243608
0.015465600939554564
0.04171577546246388
-0.02248427952186993
0.07243999845884967
0.08055421623875299
0.08243302040367609
-0.10325040896190384
0.03435358933933801
0.01918468421835098
-0.02833100395985866
0.03534248295575126
-0.0260735767487792
-0.021338068836261877
-0.011080411667716119
0.0463648425217352
-0.08595120238019838
-0.01741077926608621
0.05489730013729852
0.08975078832616824
-0.012224093271610824
-0.044996465586567176
0.004262668155291263
-0.08944300512145652
0.06146602250085843
0.02929483584819581
-0.019611421045473622
-0.0814402957281063
0.06796673890183663
-0.06263705627374708
-0.06247600416497684
0.07805184192416043
0.005647499377763464
0.038390322918390216
0.010248441242552156
0.06786425847001502
-0.037756807375314005
-0.0027768697535615833
-0.00491228332065642
-0.06594669490958259
0.02236345474023793
0.040798089159180484
-0.013063965641735462
-0.019192382000068037
0.025644986210163336
-0.049270523369548395
-0.0337417068122123
0.0274904835923626
-0.005978279721418906
-0.0523166850549071
0.024548879482856525
0.003640217015261324
0.03040485072240034
0.13836053198065443
-0.10542592819111739
0.021780707888258415
0.011024805067094587
0.0023901115928296967
-0.02574183039537592
-0.01620123168420575
0.01982448113541702
-0.00024032901541658127
-0.01867459011795536
0.08313971894462208
0.03149372848837425
-0.05187613790884619
0.009144724453550667
-0.00731063357891772
0.058272085034039536
0.02891908923882096
-0.04122853671520287
-0.014455945735755
0.02915106232626423
-0.06260698486363876
0.06948202297780069
0.05057935921809115
-0.00045587249430341977
-0.011141466633865928
0.08400545725779535
0.03499904452507043
0.1197410919864258
0.5697947312538114
1.0422409563621193
0.4801656105314474
0.12239481406882549
-0.04368037702902283
-0.04379762107527982
0.0032541767989276564
0.048718246242761214
0.0668069705835624
-0.06128815636601703
0.10341154290483806
0.04692390472769989
-0.007932775653403256
-0.11723319850506753
0.048687196724559824
-0.04907836241763164
0.07408301284659495
-0.037621000653021444
-0.03388626643445168
0.032969860663790616
-0.008484421143132196
-0.017924760086103518
0.028218147306922493
0.0006209051014799358
-0.03079606184253938
0.03507609073898199
-0.024756247616777444
0.02923783478405806
-0.032166005222400144
-0.043559241355418346
-0.06339176064926345
-0.07517207351588404
0.0042510968693753965
-0.028737396622618767
0.06403989561354664
0.021573923460661112
-0.03838385125894071
0.04375519673666028
0.051127519940261004
-0.041495045919032726
-0.0031589432110590123
0.04909761603247663
-0.03243955986483302
0.016346792864665227
0.023470201834627263
0.002118691090054433
-0.05594919879679103
0.06181730224886456
0.07186539052124101
-0.021459611287904343
-0.008845769188419911
0.015221825112743457
-0.04346552756865857
0.07219631504780957
0.048086329142240675
0.05606600635305319
-0.05131535116816186
-0.00989952011099323
0.030150039607206237
-0.031251594149729466
-0.04935302409969831
-0.002976411090063587
-0.0034133049196681357
-0.022033599035216837
-0.036053366221081684
0.029505275668495604
-0.012572611589708106
-0.015257777182228711
-0.05018014040454854
0.08613487425363724
-0.035716897258657364
0.09284093008173955
0.039001229730332716
0.11015983489030634
-0.03044285852962298
-0.009269069561669096
0.05042758494918616
0.04505973415544702
0.00852761663789064
-0.05064558025445205
0.03128881854029198
-0.019004413786910743
-0.002331855665743477
-0.0378562415051993
0.04381130752025069
-0.15644910604468765
-0.0392028133176995
0.01788821471353752
0.05098692377489498
0.03158664887375138
-0.013163890388926961
-0.07347473793476504
0.06711526272174761
-0.00259007691214628
0.014758496435960063
-0.08113527249394561
0.009226229585785586
-0.01351683497380751
-0.006477634714638303
0.01679956542278986
0.006706599261779094
-0.08968950990348858
-0.06768621961213903
-0.012692797118793085
-0.02492337941521183
0.024299927607237842
-0.04607220192540593
-0.03620132441211706
-0.0411800959039208
-0.033934082256126215
0.13748300437564026
0.08628961736521328
0.13086103577440772
0.02716451254353776
0.06117238646437039
-0.06513466005547346
-0.03788203428025497
-0.07573327761090712
0.013956254282862998
-0.07029763125499808
-0.011547617386480927
0.012903561881156322
-0.014651735764819686
0.015861048117013173
-0.023180063362535586
-0.0007203256874132222
0.02479657248737895
0.13580784282560898
0.04297168787989217
0.028940716748982683
0.06244748771770242
0.015365351950844009
0.004851372034482583
0.003974995080167697
0.018819762943142537
0.03364579787994873
-0.05072625217821858
0.041639651409756236
0.002403193046344703
-0.030439061949042286
-0.06862003539003625
-0.05767042215219345
0.06685923178581066
-0.004596015232433162
-0.04743549295912381
0.03314044054420064
0.06619688312062125
0.055560209385049665
0.011530388966217324
0.07207454753731272
0.040412663730602316
-0.1025932294107139
-0.003189990438971032
0.11277731092801589
0.027411265167993495
0.006409146738686067
0.08651348822199795
-0.05658631274377205
0.01618191862240094
0.09474880560323154
0.06899814028094028
-0.06715855934760444
0.009474086034693813
0.01111053891336989
0.07993886036810115
0.0337424595845525
-0.03400245937728719
-0.06726497569044936
0.05432170250888925
0.003954486454816687
0.05868613109198655
0.05983696348276174
-0.022479237451790715
-0.0014128036433549798
0.025262512940107392
-5.160395476316958e-05
0.04085297685857703
0.023742367423800266
-0.10081959274211699
0.03858759513028336
0.01683638104961526
0.07134007693407161
-0.04010796348668389
0.011065215036259343
-0.008167742703066715
-0.0362632549101943
-0.053943783076257024
-0.05577062387226446
0.08231645278737992
0.020173203056686823
0.09061690088450068
-0.02239683887616744
0.07312720798946867
-0.07683233525187984
-0.002317661974877151
-0.021300647629921825
0.03567210291825987
-0.01618724972894977
-0.03968293044792778
0.06811755437839828
0.1882813870863268
0.4000904409137258
0.9670966255054498
0.5526032277026445
0.014252093988417452
0.09850948850209403
0.012593792165940303
-0.05820342956558219
-0.06569170271401811
0.02015399359498883
-0.023097631279409638
0.016253841809437466
-0.005865068366568219
0.04443607178055686
-0.03730195982747113
-0.029461026236128708
0.024794185668088737
0.04977582551239484
-0.0157986802117028
-0.009382331614148877
-0.03289105173532715
0.10702235858515499
-0.009900560634587323
0.06856547954861351
0.03997752478123299
-0.012005603491881093
-0.05468151618074373
0.060102725117005734
0.010623004714615802
-0.056070860764040276
0.08828037113480958
0.04748886279325788
-0.020732861062030993
-0.005937211206579397
-0.0033673738873043375
0.07646568264604565
0.04152855918432632
-0.023257529412250733
0.024114906674987602
0.1138211222012987
0.031220777796056316
0.0442856969389687
-0.010364979436348037
0.016386344531619978
0.013583653202638697
-0.028586609037237188
-0.017154337561288573
0.05515282800452122
-0.06469214233023489
0.029420883920103377
0.05659810835757817
0.02982619029390142
0.051307264759658605
0.031658800875281196
0.027040607924758316
-0.008861530139191158
-0.002439155638271292
0.05503150493871831
0.07523967100092743
0.08961416990350213
-0.03439892979739934
0.09828221837889001
-0.05371822602520254
0.028020246140455993
-0.03558359536590583
4.2041896006451935e-05
0.015402013941019596
-0.06419568680421887
0.012868902938064792
0.09552412837172339
-0.005388440640900715
-0.01663658031490661
0.057117613294974105
0.003221616653652023
-0.021547624624692792
0.02200498853433075
-0.005113964683094667
0.06327119113766934
0.020462625682266103
0.053088629588904326
-0.052506542222081
-0.01841270552700904
-0.006065043002655656
-0.04141954414063123
-0.03326890943758828
-0.04539754973382243
0.0005450057524646927
0.034034933522034946
0.01978969500937117
0.06871943426076596
-0.08237155502016236
0.09066135393855153
0.02477695590560577
-0.04679722448815792
-0.04265191644835812
0.022175752791621185
0.06856851849656737
0.09618702297208277
-0.05526611037149237
0.060947952991748114
0.06926134500511354
-0.01215451818022344
0.05399993531806857
-0.09551631033069746
-0.06579961225293084
0.0023122318761418905
0.024061970065508042
-0.036703600303349515
-0.03047187958181738
-0.1447187715136727
-0.015844312816007258
-0.021404795719566928
-0.02092992613405201
-0.053928480118022426
-0.04894583449408399
-0.08791587623696613
-0.059613517858389954
0.017978783279968723
-0.04465261897279535
0.0409700780423327
-0.0016821004847751295
0.0767218573309425
-0.05333535934272258
-0.0974938052280267
-0.05169013621700232
0.0936298423070735
0.02254277293264972
-0.03911565782092147
0.0435957346564339
-0.03029888997289449
0.03989056512774225
-0.011444712703204706
-0.06191281551172856
-0.00016857934066751164
0.011662774805092637
-0.0022233576434604516
-0.031886573506617215
-0.015940864879666252
-0.004640867718923364
-0.0014171504235824023
0.07683903819253284
-0.0007478091820720191
-0.0769321240586353
0.07777637116307858
-0.028384982555940907
-0.017808739950358084
-0.06622049622100722
-0.051388882227854885
-0.07080908337750452
0.0026738034918812542
0.10587195581758567
-0.03895282219946065
-0.012090032009560357
0.01732282758695845
-0.02522489082537757
-0.10852099382852352
0.0005307570552721693
0.10897177556197087
0.002982733510756932
-0.05206483709314502
-0.023563623990862044
0.030732826593386747
0.037544162875455304
-0.03331231579595961
-0.04524000865962314
0.022636148302848866
-0.10332607063778709
0.007212451893192671
0.014368582907510663
0.03407171762805521
-0.05545490427570078
0.021017909049450383
-0.08679756021421581
-0.020457902524576105
0.07421741503516975
0.07177628243451555
0.06258149245351301
0.07202484341181019
-0.15318476758507407
-0.09482422192327086
0.07007918430128561
-0.024975746355114275
0.0008218804237788492
-0.050584235143936285
0.013242509880393164
-0.08106690895038986
-0.008576512794604583
0.0006483115231907778
-0.09437888019772489
-0.0029032370764866056
-0.038002581982421846
0.00907161919514664
0.021445706294755326
0.07556710919097782
0.061437276251958564
-0.06518798850633825
0.04156634848683907
0.0048060157342279895
-0.010313721967452952
0.10647213568683285
-0.0020859631285421896
0.023000560528635954
0.06793319417233405
-0.04340100370834549
-0.07747094351576796
-0.03881743487678756
-0.0396441274123758
-0.02309233845127438
0.0010902483011334878
0.12223185454757426
0.03202248275742431
0.016339822864095004
-9.822332013881208e-05
-0.10377304929960991
-0.0067055428976551135
0.06378600720440708
0.47639603870821
1.0860113938840843
0.5547483006940586
0.0955841236851066
0.012130732689723001
-0.002846765150965482
0.04707517072176647
0.03583515742818629
0.020835143967438734
-0.052878636429220555
-0.03544180673185703
-0.0332456764069112
-0.004385993258195704
0.006455963524182394
-0.04647157222470677
0.023494721599174356
0.040043617660328615
-0.028876540787160856
0.03275107140150173
0.018863669137905114
0.06890684284210069
0.07116059968630521
-0.1183291436094416
0.09118504787207216
0.07933523504286254
-0.04053306150252962
-0.04127613977785399
-0.07699976729683082
-0.07513235193131448
-0.004398414245843047
0.08239067206508816
0.05028287374193344
0.09671080974611564
-0.051743405450434425
-0.038039116602712
0.009571967104331724
-0.01916426553171027
-0.06632083082900375
0.011135453611356623
0.014848536134753018
0.04198183169777001
-0.007338228394655067
0.015771567920457925
0.07675553879400006
-0.00535138819572048
-0.04735176941155273
-0.014770067688285388
0.010141892348980374
0.052670960434415985
-0.03433743460767151
0.017279851681845086
-0.07371720812424208
-0.06998798869288145
0.12151845162252693
-0.10633953119928646
-0.051783819133642196
0.07571035350052957
0.05578243624151466
-0.04144561744255093
0.01646218375180526
-0.02038008101997713
-0.10192718060148934
0.0040606255660185055
0.010427136939348049
0.11115103692880775
-0.013981117665906371
0.01952069042953595
0.07938680361746467
-0.012044826631179832
0.04254389298613312
-0.00216482106250952
-0.08076808770939856
0.02991039642978129
-0.03241617583400827
0.011119447852973923
0.014129998360958216
0.03273018464405599
-0.05840229633581576
0.0002283040277110313
0.0028187802951259553
-0.044582980789473356
-0.09368328506927213
0.013317791929348139
-0.030750811861195795
0.03418078334918773
-0.03053267856889591
-0.006997207922762357
0.02333988275881255
0.05115854701730926
0.02501016786665608
-0.037479785063146975
-0.03630754645693326
-0.011839008944570942
-0.023909819096446287
0.037190914976802956
-0.02253088840054655
-0.040727097104096346
0.070402563929878
0.049137671170743774
-0.026145119607860087
0.016018788604878098
-0.06341684581101815
0.010293869036877151
0.018328942654129845
-0.013589894825387092
-0.024800756644267306
0.012796427858349555
0.07189879949413785
-0.048314754723623086
0.0076981224976758805
0.020709314065003773
-0.009068011450245338
-0.07510862705621946
-0.08669811505268654
0.02303155967173996
0.08906990893557849
0.030604289988182515
-0.08052676734618892
-0.05243359954641186
0.06570452217636667
-0.02479033296484656
0.09200180922699935
-0.04354773192279013
0.024731374276196212
0.04361528583165486
0.022891724904525856
-0.01877022545493065
-0.025690496283202788
-0.04950795372917108
0.00019127374416157665
-0.08714561313979047
0.029446080749925725
-0.03915785702816271
-0.08802482914044363
0.014487110879112863
0.01681608569324644
0.06096463860358479
-0.048009811324177844
0.03155484601545037
-0.05334464088809418
-0.09291142948559813
0.030481250202601326
-0.01121070114939458
-0.03299028212273016
0.048404247141521806
-0.013221339877815633
0.034440771599516605
-0.02055871273450249
-0.0264159738320498
0.005618369757037493
0.07268464824655849
0.05454479439238411
-0.03439518425897097
0.0019511958894045816
-0.0009109702777886999
-0.006198415309556222
0.05379120954911827
-0.040628232646942646
-0.05532232693779369
-0.06716980114147418
-0.03601858709873334
0.0288490625590631
0.08567530666040658
-0.037885507712493494
0.04537852636512393
0.03416044474134682
-0.01704867966606972
-0.03644745022335685
-0.07305448249837364
-0.005398778699385049
0.018476493356896575
0.010097261343713566
-0.032101964847713375
0.08053372498543518
0.059634763027206085
-0.008483795690791355
0.08667781537213187
-0.07504020623875629
0.07974391559372151
-0.07748411594873122
-0.10124097329415
-0.06568016724375665
0.042452688953230344
-0.013537384438998424
-0.044595816570497694
-0.029037986022714832
0.028787812360963574
0.11729764011402802
-0.049916381940678364
0.02779402460563655
0.08179405878547202
-0.020202592688793146
0.000903738632903213
0.031334303247864355
0.02332298874405725
-0.05927933283056336
-0.007188965841313406
-0.05209880547822126
-0.02412941564928126
-0.031461866046407244
0.01746463370759976
0.03935160612021713
-0.039246479023541454
0.0272632269436897
-0.0026693539423393335
-0.03641896467460201
0.07256552566735307
-0.000611536468463532
-0.06459420047786854
0.07436324171332706
0.1739927016512338
0.5799503632539761
1.061636185706169
0.5368772902966232
0.1511137596187676
0.011390369124454377
0.001948721235500646
0.05476293951789762
-0.0527894757933057
0.042864900806260306
-0.0056817809193475816
0.06468999221231664
0.03631715450090758
0.02018605056272077
0.06581767053668662
0.08232561535980126
0.009399868016009134
-0.02203997645598258
0.047585658592777566
-0.018917939761384707
0.05880041998865348
-0.008771946946758627
0.02040132280345673
0.039512327170515234
-0.007344079939925913
-0.01244034258907768
0.044770335731109834
-0.04113540363496831
0.012705837560568612
0.04105251926928801
-0.03713391599885255
-0.059293039467049946
-0.0443224901737027
0.002886425414481696
0.022833745683932066
0.0573234759316609
0.007088849001940393
-0.004730473924072984
-0.032987064422099664
0.002054185916248197
-0.01119950291409419
0.09173976974617391
0.09759720392585847
-0.008357391359107602
-0.009364268766190838
0.04103324832579815
0.030360873245259507
-0.09602822955012855
0.0015878367506993903
-0.05174485226231948
-0.04754690368779356
0.010792080389400532
0.018232436999535927
0.01061264476793164
-0.014427969433710426
0.04284901539701289
0.01676390832467015
0.10081139805142428
0.00693731121227352
-0.06462298353571927
-0.0641383409187855
-0.02821924782012509
0.014458499255199181
0.015668907406725708
-0.0498429608763188
0.029050769725707044
0.07660929221820886
-0.0335383373072976
-0.024370338203810474
-0.04559716269536084
-0.016592756234861665
0.06607314213515678
0.05125772859573936
0.03312060539866855
-0.04414180005025186
0.022118338870041054
0.04235743191458422
0.021200198251677467
-0.019891219190457582
-0.04875581784025109
0.03006526380500349
-0.028066172245805876
0.027028497938679605
-0.002190090865672415
0.0755880527668864
-0.024862842145827273
0.09201452596695181
0.03094694994935608
0.0031589705319856583
-0.022380627164391133
0.034459781662427226
-0.031834923022177025
0.04177606030273784
-0.03586852175043289
-0.04305387932471807
-0.038494422677681474
0.06647189950505049
-0.04426302350443945
-0.0364123242708299
-0.036614472807000864
0.03285240315931052
-0.01348940904408125
0.041185556779622906
-0.06905762140472409
-0.023358298591063344
-0.018815161815444653
-0.00946072022287941
-0.07589121625786337
-0.02453610527698943
0.03887125473249116
-0.020219308907890973
0.08196733930335917
-0.010692570717588954
-0.014221095301313519
-0.059251175977881924
-0.07083817315740563
-0.07356114557327452
0.042120054644656894
-0.02574715353901673
-0.004597909338656769
-0.019395500502596204
-0.10882875465612547
0.03315486044099625
-0.06921174045055845
-0.09041027445583029
-0.04794978893746124
-0.04133209350203935
-0.04081243790594199
-0.009751764422738545
-0.07690935945992747
-0.009233551741477898
0.014577160129321323
-0.10964599857528237
-0.038318598998908084
-0.0374627114234359
0.05905382542387347
-0.012917568531317323
-0.0018256290476905438
-0.0010321690596507658
-0.011077035982750179
0.031460279864805124
-0.05348252102422155
-0.04244161030059659
0.08304434725297727
-0.051910477852792514
-0.004702318544199976
0.003822150562797678
0.012719410227460544
0.0004689150250214876
0.05615717437346571
-0.03599392402133977
-0.045136467687416165
0.004507863384950498
-0.0694189595801484
0.0362491681746668
-0.019475285305459753
-0.0005860316294387416
0.06859660384715181
-0.007508910850071182
0.03207819438791321
-0.05070644477567274
-0.06058564279016623
-0.0988838398069567
0.09581808468498863
0.03732631806125036
0.01900915752183349
0.020832251492904234
-0.06560465930220655
-0.04237517339817431
-0.07422280078949971
0.0025468545519285145
0.04980282940442142
0.0420432572645454
-0.089381940091536
0.07770996147044147
0.001772051656667977
-0.0663788700338672
-0.01641064318156668
-0.12960705157181004
-0.1316481664478642
-0.057003263015545536
-0.001273415837853972
-0.0797460675869211
0.022831501132233253
0.016616190372595232
0.051630520668098125
0.03662960506997616
0.07288398024042586
-0.0033245630925601297
0.06350247637170282
0.06226933289853385
0.023395726463626643
0.016229045067229466
0.08575543033965144
0.03624593551730084
-0.05434281075552665
0.05060842835563878
0.050985230751914835
0.013998255550067404
0.0107827713887204
0.07425376090991255
0.01437260899140345
0.02911474452837371
0.15477592372678764
0.3893381307965986
1.065602317902967
0.509068912636239
0.11110751522595254
0.02025296485292689
-0.03914599120812217
-0.04054233114910296
0.06257846960711153
0.12449499413281227
-0.013130391918022741
0.021529745375506115
0.011280924465415558
-0.09509457588759801
-0.011839589802991582
-0.009077920385218282
-0.07011503850643562
0.07473562494972917
-0.010676310225145291
0.058481761923336754
-0.02536559933007376
-0.03587640978647713
-0.040975018233202
-0.08090564404140277
-0.04201923074058099
-0.006401160717302516
0.010464672628067063
-0.026782071637303735
0.07282599799760996
0.04742887463649484
0.033736493200033406
0.06993273618404894
-0.01885953262852693
-0.0028726762918338225
-0.001346150618907456
-0.01820639952922826
0.06011705547849203
0.09025271560093878
-0.04428213006337081
0.02692004182374734
0.050703876930087294
-0.08453854690899121
-0.04322773864901822
-0.06707157270714266
-0.056565155970421735
0.07078605494713948
0.036133114632178706
-0.06152750654081798
-0.06401164972862965
-0.0047018356143494295
-0.06610088448927753
-0.04541950699172356
0.05836021863055142
-0.06577576512415174
0.10280723181465042
0.004093430753914421
0.12555359843266975
0.06818664574676812
-0.0405497026891104
-0.07584021335759208
-0.10202261524851863
-0.014258882647413713
0.010869858759226185
0.04975067865386908
0.033123408328065346
-0.019542815443929634
0.08455759479562658
-0.04809998062993781
-0.057245826652299416
0.01102158753672243
-2.9022198979199807e-06
-0.031496600869071426
-0.02218446700218552
-0.06867781751252323
-0.0013201336284419227
-0.0100866126040991
-0.052843399271597195
0.08506516195518721
-0.04141691330395347
-0.017058885627089692
-0.027613527385106248
0.04775582225370854
0.016018658294973183
-0.030192335387458677
-0.06278321190754425
0.06899020933051876
-0.08648684744586532
0.1265772953706099
-0.01260914078723114
-0.026018792692337984
-0.033400289491269414
0.01651201871919572
0.05850158791977494
0.08906714366139329
-0.01701984209762119
-0.0008643665229237414
0.014084643565287176
-0.12900338944887474
-0.03725831276776339
0.024643335216300244
0.06304293362845408
-0.04660077170022983
0.0022239945229675672
-0.052225486393309865
0.003782156601730277
-0.023198205344298783
0.06894296150050333
0.01480123329719599
0.12167245970794936
0.02506057171826212
-0.010164718737947212
0.03246798502519188
-0.020955856146795557
-0.01109132380526301
0.07478074385432416
-0.09358169751434961
-0.00856437063495407
0.04378512450878149
-0.033276392816454115
-0.017993249065958082
-0.08568578862955309
0.025302447770393133
-0.0008745235357712305
0.15046313557796692
0.046718245286774054
-0.033585012394712115
-0.07231412730831675
0.02725421239382957
-0.08704785448817798
-0.008960293075603304
