ecg
-0.0069700152740711716
-0.018565093962047804
-0.007816224376124834
0.016298817470018028
-0.047757460115765746
-0.05406711205506363
-0.0554678580120627
0.036224288686024494
-0.07833132020491897
0.02270443332939756
0.039962407590038655
0.005984901849850665
0.08421502458857805
0.05057014240710141
-0.05514398139907614
0.1377997110253997
0.061164795157104684
0.04217921356637924
0.025599490885734995
0.04705278474356964
-0.005303164777117458
0.0991543145609907
0.02473663266936524
0.007052050989319519
0.023765987989394013
-0.057955993814610154
-0.003970905577300672
-0.08376825431476234
-0.08996236430149793
0.05318487120806623
0.13240135635435488
0.045163731057488055
0.017076722848476344
0.005041985370171326
-0.03488399185511995
-0.051857347588660556
-0.03559262287791425
-0.032704670359748333
-0.009020212451930593
-0.06208655984413019
-0.04632149034918115
0.0037026937593925727
0.03989318360034111
0.060698410126485795
0.05277922851579691
-0.0762627543001031
-0.09394820415762484
-0.01571347916728442
-0.017802610614780338
0.003939673560081568
-0.027107050804209904
-0.023370021208304243
-0.06847402737311471
-0.010258134976844215
-0.07988215122533054
0.025140492740344862
0.01373527521375227
-0.0825309985114881
0.01259697830501006
-0.0013275084373972439
0.08005271152930993
-0.027656092674817053
0.10332043378930884
-0.09320134910308214
-0.06609443544506724
-0.013107114745597923
0.0226641332643787
-0.008224924580227685
-0.0690637348602287
-0.06726164741794971
-0.07854232870255792
0.04242645079191508
9.052891279951489e-05
-0.040353759045448356
0.02716557360883351
0.03239501064879941
0.001972331901819555
-0.04386001802924804
0.037790416413222186
-0.032993547318437746
-0.04367306767898183
-0.05919102777820633
0.04050688986772133
-0.012920129094258102
-0.061959375161802256
-0.043339248017065624
-0.05118256945802772
-0.025852847018785013
0.08400856360268064
0.0039130049811082574
0.003166351753132909
0.046933766126147025
0.051206530878612024
0.012787198740913025
-0.002023935207115228
0.03933258096984125
0.014538714928070979
0.0557983076444787
0.0800413688049617
-0.013411029766608497
-0.006794779087879821
-0.029902531239910848
-0.07165309119310351
-0.011901787861979861
0.04639700682178105
-0.01712651082701287
-0.004762596198715656
-0.059959994728361866
0.07122633650046731
-0.0004241228048813927
0.02211075054166014
-0.04130547549547912
0.03350194927009061
0.03723920807128455
-0.0493322712072755
0.08202011419813296
-0.018305944977239093
-0.038724184435469766
-0.09692261551027077
0.06821268710223344
-0.03017557514187021
-0.0793876776529222
0.058572963810455764
0.09345489686266129
0.012589857613200795
0.04921376306477245
0.010755352116173268
0.07551094778695137
0.017496470142743335
0.029143490590842053
-0.007634697455231668
0.07223980868964514
-0.0457424852815686
0.01069108689637301
0.10329062033075256
0.11412907727428274
0.022224122612289024
0.0757971430940066
0.08073951690482761
-0.09370021289059159
-0.07234310329428005
0.040424295089170025
-0.012069508142420304
-0.02874790324497155
-0.02325967243534445
-0.03582477705959865
0.06864593615730315
-0.02972250921797144
0.05668542843793944
-0.00944024757789974
0.04815061049432909
0.017495508725661604
-0.01553635730461906
-0.08663429321816814
-0.028460289137656577
-0.030610023102790353
-0.027323547592617015
-0.0419071019984268
0.029609882766531617
0.031292899629202724
0.06885801472045382
-0.02679357676346443
0.074294374141909
-0.005252146526804179
0.06581370144669714
0.028072494970334944
0.010630390135248784
0.06066814313681155
-0.03041464166916379
-0.06819301921314073
0.112659331835754
0.01712903990782396
0.06891287760622798
-0.10466493989443965
0.022309600760734582
0.0014364999714393985
0.02776908329904187
0.022655873773064612
0.05414681473075288
-0.012132933610623356
0.09010880696605371
0.1172068928933187
0.04197037598072914
-0.07429838408912454
0.024009095035002898
-0.021521962154346156
0.044698416469898465
-0.04329364507066668
0.005007909920197266
-0.03373306860076938
0.0029475711446943615
-0.004566014829540258
0.1218983445660728
-0.06933785348520638
-0.01598920973576771
0.03677696592588026
-0.0558385733181061
0.09402311445874066
0.5337256380065554
1.0217784491341828
0.4712361120661558
0.09153959054637374
0.0374362090548103
-0.044179759602440985
-0.040011688561057246
0.0142533673217453
-0.09455032435642576
0.03226598674587824
-0.01457033945041559
0.004327481762711006
0.04733415425580557
0.040336270323822594
0.04799259983956999
-0.07287441993468187
-0.07663548968199746
-0.06370202870032596
-0.006486544930325487
0.01386997001337128
0.04736145297050319
0.0640599340840782
-0.025230591173828962
-0.008596397334159728
-0.030699118460866693
-0.015539126704818638
-0.026587467667932147
0.02463370365731764
-0.02663213493994252
-0.014295559547400933
0.024122477634927173
0.014711586227544796
-0.04878984100903866
-0.013970877152196762
0.006869643995537431
-0.009590096848954833
-0.027011990527994946
0.028656422667004647
-0.0011292140148548488
-0.021999819992989694
0.01369180128755905
-0.013768508255048023
0.035042509662808544
-0.023149670985451842
0.09322207367942016
0.017944937018508623
0.07132401642520181
0.03859754375665106
0.04425295671217548
-0.0006194292651469391
-0.03674961894553748
-0.04057174308963063
-0.012003430390742933
0.09184345026235673
-0.09039116081957882
-0.047355621160483426
-0.0016708731554203869
0.03391538136263195
-0.02790508902370456
-0.027184313177869075
-0.03719945802230498
-0.020064255288548393
0.03145841273030487
0.05607500475124422
-0.04884523383741185
-0.05010863382273326
-0.09733444771957797
-0.06650000546153685
0.005322260062497606
-0.014205946165393469
0.0004963881735188079
0.013462966624350729
-0.011388129320337354
-0.0813964382490317
0.09295850854807462
-0.011468240870876549
-0.042119710332413324
0.03832246831095374
0.012891929544146736
-0.0038438857636092514
0.012464491446878027
-0.030815267631907475
-0.040573766049098015
-0.09432749647473236
0.04537287102166073
-0.01083914448606766
0.021589414103496258
-0.004553202556061027
-0.042818806583968666
0.12750143090314353
0.05412249023962861
-0.013011379439792326
0.04959278964195668
-0.025419604801398977
0.013351957895053708
0.11295666277824068
0.025971183040186085
0.05525861670711871
0.0266045149525565
-0.027651039649358358
-0.048377441854517055
0.03536644312582084
0.04763602965082453
0.006722838896166575
-0.022751277458140453
-0.03812855897509476
0.034656680140117815
0.01805059508785561
0.049665742637512465
-0.1074925637368311
-0.0034492011013079215
-0.03575880812613832
-0.11041718613354996
0.04472244201300522
0.030040397981965408
-0.028088494703414985
-0.06297862743906878
0.012002530505563979
-0.1360491465743244
-0.04706229834073899
0.03779802108399758
-0.037222458683972226
0.029990926440853112
-0.08085825830754724
0.011053171506481859
0.09762101399397895
0.039665256052517306
-0.029835171582282854
0.020617577499871437
0.008614664720072794
-0.06942914295527271
-0.00656555910084328
0.02216201696473665
0.07691780505431628
0.024817749746462548
-0.018507698323272086
-0.00023758447622975596
0.016562643846483503
-0.01958988287611989
0.01132010494445832
-0.03915269817252241
-0.08003195981518324
0.009385865864024383
0.039213194343656284
-0.03706097221059917
0.07477904081000283
-0.05623445089247928
-0.00983828161728679
0.0011486152819499384
-0.002901815188143908
0.09306014055718298
-0.08873252916523852
-0.06486972375699168
-0.017051244850023795
0.07114217639814535
-0.02276646930560875
-0.06597543728043859
0.0025803397983352205
-0.010811059604390041
-0.021466718948390254
0.02588078748550219
0.0033936001774635322
-0.0294217880662208
-0.031231147353152917
0.03963959916866729
0.05682877390011505
-0.06367451793992525
-0.0341913824395157
0.011054979278927943
0.0518989571609492
-0.008067429851571634
-0.09179483630900748
-0.09119203576058137
-0.03831256900963417
0.042166452563571793
0.06530263958626617
-0.00742413259467373
-0.020668465834963713
-0.01065720973609736
0.01643686796912513
-0.010113326845818161
0.016408341575456543
-0.059763568996882725
-0.09236068406514926
0.022033650792906832
-0.05829423445077622
-0.049000377314087566
-0.04445354664513266
0.061906368671982084
0.07641110037680204
0.001101982065113247
-0.03893441747014452
-0.035946247238538745
0.08104235822819318
-0.010688233024445569
0.05860766150565719
-0.1074346903907856
0.06625077714196008
-0.037323209112583834
0.03834430884718683
0.05444698939455819
0.07127757978691926
-0.04116208560814176
0.05057433914598228
-0.02590340327426618
0.04040360044148985
0.060009409545966536
-0.0751504735541053
0.022940283965915024
0.038917126839287025
0.43300465935572985
1.0291871775116423
0.5180358124881127
0.10665041785743692
0.025374053073425787
0.05536848640662693
-0.04050299475348062
0.006682585109502805
0.07452351884120567
0.03833765515052285
0.017773431984766393
0.016646139779251844
0.08737730926871823
-0.040840799933835215
0.014381823708005179
-0.12122960452088011
0.06674198162615852
0.006744933807985457
0.054963251665895586
-0.06461750829076324
0.047002647164688174
0.04026335904598672
0.09788680411606318
-0.016367208716161607
-0.04782772994993864
-7.618880911044697e-05
0.002861719180363965
0.05767640190001042
0.09190127166501746
-0.03862867553697025
0.0826953419943968
-0.007331228740650467
0.11795289413812896
-0.03225334950438382
0.021415174452324263
-0.006005324998815925
-0.00883632252163763
-0.003027135169978739
0.05235661791764237
0.02681177280351122
-0.00933750941022414
-0.024976062321151904
-0.027970637167859802
0.10110725150054303
0.04535445063209252
-0.052855259247633346
-0.002211189755697868
-0.04362071036665585
0.036336012419109255
-0.053904055652916553
0.061267534138227976
0.05265500533831207
-0.06946349462370341
-0.019795365574023824
0.015259976313752165
0.0783303932538008
-0.011166514718389505
0.0554478583914514
0.0201140308002174
-0.05235702024364817
-0.02312139504141402
-0.028993228998065147
-0.10345783115329626
-0.01960616615552653
0.020216059008682973
-0.02562363238612347
0.022312542335516328
-0.09446203307536291
0.10471824305829931
0.03571662028731192
0.052003229318559475
-0.035567698946552644
0.06507943569697078
-0.04581285818434145
-0.05786377115312539
-0.048609862970593554
-0.04999567326997433
-0.006740787165327184
-0.09889762624311993
0.06674054754759205
-0.011081523786788477
0.041914184926106844
0.018814686671014744
-0.025490823871506932
0.021416231074954
0.027125459579266882
-0.1402130700412489
0.024781208664859
0.05307381817787733
0.006087138051408619
-0.014562844447934327
0.009561732284055212
-0.03696679678027558
-0.016035608952568687
-0.09788091562043738
0.07257702662643144
0.014824126090897366
-0.03792191946804602
0.02407034197692913
-0.02026181954691091
-0.031539243020845355
-0.04586737482421472
0.043775585201047004
-0.022661820409544394
-0.05043990235206384
-0.05203275394011822
-0.03869268103661336
-0.023488482453276876
0.008866594730142379
0.10504672399120832
-0.042936680512411216
-0.09492545548282717
-0.04258880519371218
-0.08258025544622494
0.01598025044494847
0.07813513467906372
0.03093295113969818
-0.06964597376367393
0.041707200060585384
-0.03451801123206529
0.0498902679224314
-0.02941044807452058
0.004796462098041854
-0.02473296741839117
-0.07986177378737543
-0.001003927194873866
0.012259593003686543
0.07366055430506686
0.06315079124610894
-0.04399843733207198
-0.011006004936377057
-0.0560054479328421
-0.0313049087126308
0.012224683820505206
0.10076298171629582
-0.026204647690978508
-0.008829975065412866
0.02705498219334917
-0.05441481229210452
0.05037779928383873
-0.1148558347216925
-0.0070415002506020305
-0.01741184196604661
0.0760958745787846
-0.018323344188387405
0.024192280571297537
0.02238492323316835
0.04187646254969449
0.003424987496328709
0.07414752398983569
-0.09027399736830805
-0.14237342858684046
0.0071226061703584965
-0.015003906036497039
0.05361278582055384
0.0010685323524736062
0.06978999639471793
0.07204414214533765
-0.039920388705302075
0.04766983035866533
-0.03934985449447781
0.055412829572820524
-0.013281493149590219
-0.06059937575347503
0.0751420370096359
-0.034866038650084
0.02904527337066965
-0.016349587014326112
0.06009016027576375
0.059062516590952956
0.05445525649158988
-0.03198657052535651
-0.01679561154800679
0.010863043606984516
-0.0026698510283927664
-0.03724300223705952
-0.09825954104305423
-0.03304987228337473
0.005952134061214624
-0.0427235231328619
0.007751679676956263
0.0038149592340071797
0.02241707866570856
-0.025093844295038654
0.0322818429798877
-0.04671828309314552
-0.005001692757921575
0.10370500649830666
-0.008405828435648726
0.01593849404576828
0.005132817541178749
-0.010256290899271783
0.015967367314904755
-0.057721179307286985
0.06687666995903724
0.09037552715175451
0.04291658773702639
-0.00472845099416429
0.05931979366609246
-0.09021728673705469
-0.025611336677152735
0.048084036451720547
0.029242081306734266
-0.0017492673913794413
0.004891554736661991
-0.07056034778937277
-0.06842385948227879
0.10698294107104463
0.09389612311353984
0.07354139087603481
0.5194829844125376
0.9970242362236877
0.48045220585218346
0.10959635285218457
-0.05446253390590631
0.09668005659648629
0.013144027249217167
0.027371145078567007
-0.09054152731058579
0.03883452036405971
-0.03196229939341211
0.020751745793145086
-0.0015176313565007198
0.02809973978787632
0.005158271857611314
0.0450525255703457
-0.03179576187964558
-0.026320861131353956
-0.033345209486145916
0.033133549644540274
-0.0611834824493003
0.09332831289504773
0.011455854325115401
-0.063896592161761
0.04469774983651353
0.0375937617189431
0.007634985181998491
0.04073415902973128
-0.027176888305953814
-0.08012830108118647
0.024610058685278435
0.04809650786735453
-0.009091317852983309
-0.0071620567667826235
0.025232332883759548
-0.07898037055504298
0.06853647934835808
-0.007686707606901494
-0.014976002513779195
0.040787885689715676
0.01482077306050248
0.11046152844212376
0.009774841824854741
-0.011951467101792781
-0.032659457568955656
0.13071456899839703
0.04952142247374989
0.0002471395074900679
-0.035509294632878975
0.03807740319766606
-0.007712217456090714
-0.05551981581665179
-0.045068204131741056
-0.011586111062134986
0.0018640697444816156
-0.02474764391561437
0.015752057485399883
0.06113529336809518
-0.027504040229371703
-0.0010304001535895598
-0.022095472534360824
0.07547417933256201
-0.022154063273524253
-0.06621931090506948
-0.07073884128502746
-0.06252818325918506
0.037290145235599474
-0.009297267423137611
-0.04033784135009917
0.026275514210827168
-0.020307401750105578
0.00032923653159322306
-0.029055118806192805
0.02578653898687492
0.08686422205614168
0.08857227882593433
0.05923601054556224
-0.0944633839204834
-0.008807454439295693
-0.008111981903705927
-0.010058855151209082
-0.059122100052788853
0.03507496842975796
-0.039554285136574385
0.007005629680498196
0.026351119270551344
0.030794986242538853
-0.033513340621188895
0.06501231483723667
-0.05849344788155794
0.040243705517442024
0.03318534641049294
-0.017358841250484484
0.034242969214046425
-0.0950156276886287
0.0644483756675803
-0.022384051299070656
-0.018190683997094514
0.16713251513933977
0.019699352332967088
-0.06564255886108471
-0.013806936579512036
0.043204331116339666
-0.0820188201300855
0.013701815476996407
0.03932665057633543
-0.0726347528579885
-0.00898288901669654
-0.0696967131018834
-0.061928857658071684
-0.09413375111571429
-0.0744401597448665
0.002120554212325046
0.04630726816294113
0.03291391506162895
0.02402105224726706
0.07743932213483393
-0.034212562816426505
0.057560270482291766
-0.02024241382015484
0.0033859079250531743
-0.017213291948205377
0.020516461745432913
0.008718970402579863
0.057254993506449504
0.14572948594144253
-0.03907593916059587
0.0337152591632591
0.0475576771591001
-0.08211810146560893
0.017942674204049682
0.07238642652187542
0.01505036974522431
0.03905851178626803
-0.007543303999504563
0.02785758319784279
-0.08903432698672639
-0.05563330515363153
-0.04945266441585211
-0.007143668164035853
0.055812887410333134
0.008378024311540288
0.019338562030387797
-0.014672478853416515
0.016833367913008643
-0.003693566387919643
-0.007953908713375186
0.027828034017884723
0.054908509583462786
0.08396908482857475
-0.006391689908655367
0.002076453068258708
-0.04100517527511057
0.01463321504495955
0.1182595432173296
-0.023367490937410466
0.00613116408961384
0.020351489214471954
-0.06536682109747084
0.031062611854060587
-0.0639852250561065
-0.07401352777345131
0.05736029192521124
0.1244448147169352
0.08449376803332417
0.03351636414516931
-0.0251834402916514
0.0020762337345616834
0.04839934965204716
-0.044655019688109455
-0.0462566028051748
-0.06688599263141831
0.06905329605274838
-0.017279170296257806
0.025178620834330173
0.01679585117680827
-0.05682572834861132
-0.05074966108333409
-0.05100777661215847
0.02163419069566333
-0.005541234593944952
-0.09726467392220749
0.014179261866093218
-0.03512349230579251
-0.03898990564716124
0.0350001617604981
-0.054935702119759455
-0.04368322424539381
0.010082757605917701
-0.04903797372329915
-0.009877957683345116
-0.09338912042679724
-0.013654891036566183
0.06290297067999333
0.04948845960169036
0.047495577044813615
0.045170330130764345
0.016608710943564302
-0.05336590116227563
-0.004579906452652141
0.016327943995278572
-0.0020078866342169415
0.0158595702301396
0.05173010617854299
-0.07081909993876258
0.023638606299329193
-0.03149734134758294
0.0926758021822707
0.05332993448820479
-0.018090732052314994
0.007639563672918039
0.0041209346913414265
0.09958139761990877
0.0305595975726013
0.04857503791671419
0.032313652897418846
0.006162052461363521
-0.002633872429077694
0.002453790040746514
0.04617593026386245
0.12964510831882753
0.5247092481485847
1.0553192725422411
0.5174213962775377
0.10607536167259123
0.015213314160004113
0.006676614706411708
-0.0015657428577866232
-0.04706919092359943
-0.04124170622804106
0.09503152631104862
-0.007675733993071195
0.007628173579835061
-0.033598195434642236
0.007882500272349328
0.04358268720271652
0.038810799598970554
0.044923976269561273
0.11086157699460025
0.0003819641774556162
0.07778579070330188
0.07348978709869529
-0.03772303673920924
-0.07109736598136028
-0.11239187675993881
0.027161805766015915
0.006953979569225841
0.019950776101634704
-0.014667024726289231
0.05662274754450967
-0.085204896552179
0.02290662656774098
0.06279352192170023
0.0769407646068396
-0.0700583899517146
0.08922089899547603
-0.005486920138643203
0.01252194977253981
-0.03514985214025033
-0.0348108395451601
-0.03262198462829132
-0.09258191119801826
0.014670217303572208
0.031803174112415726
0.012998639344086842
-0.0401945510922988
-0.04357530443463234
-0.044486343474929406
0.006233328542692932
0.020562185906619686
0.014948312106421653
-0.03147418491357792
-0.06548722168539034
0.013925221871612423
0.017209995267359203
0.0030640177697728245
-0.0694844920658046
0.03648924091049756
-0.09113040557114784
0.07858784482176817
0.0352336259955237
0.02379766160753307
-0.036159120373821484
0.009049441795387587
-0.08872010253199801
0.049459267062625024
0.01393707971391279
-0.0944050013930077
0.018900620575534925
-0.002093699614234079
0.07559417250045655
0.08352173312406443
0.004800630306922127
-0.111120742209274
0.005511240983487291
-0.022600745868519147
-0.07715534400070546
0.014595171457210628
-0.008828591813624066
0.08448662299324902
-0.03453410725556253
0.0374123137484529
-0.014310739367478516
0.04133563187300153
0.0018310630137733177
-0.015340451373479627
0.04895031926585558
-0.04175360727796185
-0.01621543420600724
0.02425341959834884
0.0510775185353207
-0.028886592620420634
-0.008523873013039765
-0.06799788882909329
-0.03515632350679187
0.010042412496889927
0.02923694567409493
0.06698533942850135
-0.05812545452829515
0.07183937575017185
0.04817264124710749
0.057288258732919185
-0.026552557662201232
0.08219704047534038
-0.0124227130599278
-0.06711508540668622
0.005241210958442936
-0.008463913793559074
-0.07083486796849967
0.0717920888060208
-0.07290405385406716
0.06242491791832064
-0.08254743044966967
0.1504072447595023
0.0824119002693009
0.075112132690044
0.017783592828042604
0.005756677210200832
-0.021679837931012764
-0.01869906882302878
0.0771501587276815
-0.0603213632854719
-0.04654742407553253
-0.02658083639930551
-0.020994228464898516
-0.05237912416115973
-0.02334734248340971
-0.013982635374711429
-0.0885419035249333
-0.035558549633226515
-0.05212436096949801
0.01916340582171927
-0.0016030924283630126
0.038264307938825404
-0.010574996307946763
-0.057559298701712606
0.04600203670462874
-0.06306152188376418
0.03014691901347935
-0.1036223829141594
-0.04922801590083814
-0.051232887811382605
-0.02555181221017961
0.02323898071951349
-0.06064126798396518
-0.07139660405355595
-0.044523940291425895
-0.05446951932946296
-0.008924863644729946
0.04923866221759516
0.08135058078129329
0.0550264417940825
0.05029778297279058
0.08665725372263164
0.030033549509517823
0.023829029635833474
0.04750304456560907
-0.0059848183324786065
-0.021701128563515717
-0.06338555497104979
-0.00995361361535649
-0.014239633828278232
-0.0046548804105282235
-0.08009902846014018
7.446457009440221e-05
-0.034664202450695354
0.12255339069108902
-0.007230420865325916
-0.0237455196326804
-0.0394331492197244
-0.06204046453018996
0.07369774402387654
0.017255593994395812
-0.02436693266581552
0.003068183548294087
0.027300389401730626
-0.12938096780352282
-0.07424751581977598
-0.01843003699736879
-0.05016599282594745
-0.03582511320253161
0.03269929179936652
0.08008085065359352
-0.06807581703833747
-0.012516758215737096
-0.029290092054058303
-0.08520049299501815
0.04389747122806762
-0.007512128523458818
0.019677311860546345
-0.018087124224266952
0.03893910929138287
-0.029063282529885243
0.020208728020506918
0.012700624085596135
-0.0035305004014257735
0.01209004302547173
-0.030421471546304236
0.014634562687935766
-0.05986518757723056
-0.04111328799721467
-0.15128466596834222
0.1306066591412178
0.554293312286285
0.9181572682641825
0.5228755790454076
0.10753716325919664
0.01699455642374405
-0.02823025498425509
0.01147175266015664
-0.023993946320612955
-0.015444593635297483
-0.0516956955773508
0.10297602033450529
0.017814956915143742
0.052581248329505295
-0.05108829447478635
-0.01728274928871802
0.07676947057796209
0.014877861519294122
-0.01175634054326493
0.03289166250708089
-0.0021407661142541826
0.03230952148470042
-0.060758488758864616
0.083655171014171
-0.02362273705529802
-0.018705041815517312
-0.07898864315564177
0.059896052785960566
0.07331085070257463
0.02803974406095382
0.013722881577927802
-0.04162728238438557
-0.03550132311914489
0.0914316144518723
0.04015877683842887
-0.031092891199684333
-0.023066469182566895
-0.10036557424568085
-0.022440219719861935
-0.007185663896660921
-0.03925676659473899
0.005080037754271655
-0.04463867871778087
-0.029489603116806706
-0.0029700173731789267
0.04370794411489748
0.03332191831532916
0.06475714368640495
-0.03049040003376595
0.07418346081038904
-0.026065975188931435
0.10106821117798953
0.02254349381506318
0.015505705605432919
0.014596138422760117
0.053973951660167024
-0.03627485825898907
-0.012897691374894802
-0.015508717819549104
0.035268598545264186
-0.04734982630024978
0.03656212854351348
0.0972772367235336
0.032497402451219924
-0.06285824745061909
0.016782472290559233
-0.0465444062176387
0.005844151576912369
-0.09269401566833796
-0.014450491712389497
0.10298952048096288
0.010791236000459349
0.00898207727007662
0.010338529724207008
0.0698765455716047
0.036029960553916704
0.0049430691106157505
0.002664105668197271
0.021356066879792166
0.00932319876718606
-0.0005244091793422572
0.02789449127707029
0.020187886486435696
0.0023936901672451947
-0.06252649077031235
0.04735109980901086
0.022497264729722
-0.048969354650954526
-0.032549728429720516
-0.07329239964074657
0.06186840487634252
0.049348768867458016
-6.242453489340783e-07
-0.012572853509146269
-0.05612725990871931
-0.058120898495492956
-0.025882589399550345
0.041705489902269105
0.0003360482823973742
0.08777409732010177
-0.048796113721501236
0.011967713158313504
0.006541098321830249
0.030689219896617395
-0.05580794400447278
-0.08913228226538494
-0.06281376410016944
-0.030089685903657522
-0.003841471312957182
0.03542554666099667
0.029264113257072646
-0.041012743567762446
-0.07887068568316274
0.009110409599805412
0.0020453447534436626
-0.03726593864777884
0.011852215570849076
-0.01984097672749956
0.006901173609085461
0.04095878598040715
-0.03784265098075249
-0.04199817773988167
0.07072522371967474
-0.02556864077979363
-0.10210914046055096
-0.0851435271163538
0.005233728716157573
-0.046903728871581105
0.035907789216542065
0.05851095836273558
-0.017848221446317033
0.018887239878378356
-0.02080813378305197
-0.02452882305572653
0.038357660744847005
-0.00755660148019676
-0.03454348035124382
0.026684268783359402
-0.07254353914631312
-0.023944007003343683
0.007860019948406006
-0.0478163274515262
-0.02764304371572441
-0.009116650567878281
0.026819900833900248
-0.006011020898619668
0.008838111618445192
-0.0788668790222487
0.012598672500560296
-0.024973283497117495
-0.014067256479848753
-0.13038998440205796
0.007733720304652594
0.08115123943416719
0.11750425563772966
-0.03391272336241065
0.018065803996459302
0.07748939340968926
0.006477077216645648
0.05186364632533254
0.04406065491578563
-0.0708891158860508
-0.051290322851867166
-0.042105762545161095
-0.08992806349871046
-0.03253215365237427
0.06796640898061185
0.05396179333536674
0.030921106402618328
0.08759509926481274
-0.09956731101819628
0.029941861342101434
0.014805588973641646
-0.1437871054047761
0.023072688448029177
0.10497973064437441
-0.14572944571303753
-0.04343138809798132
0.08140795296741592
0.02626920312045496
-0.023260294713514568
-0.049211138321278894
-0.07563924661584487
-0.07855662610064973
0.016497357162304434
-0.12020261837058116
0.004678147030411678
-0.04110444168452648
0.0020778090763482592
0.026648361399916734
-0.001891628910729176
0.0846677619802263
-0.05628451458988165
-0.0014206615792919021
-0.04564963275558941
-0.04389755743959567
0.021249856276120277
-0.020231153004097446
0.029306882629989112
0.0032993117608050015
-0.0029480875265338775
0.024340049064795324
0.05757143411739349
0.06684872553690115
0.0021899721790701486
-0.02537353542918265
-0.0009414620326778892
-0.021396706283787554
-0.008435796123821294
-0.05126476006866715
-0.003767141037559721
-0.011778154755109363
-0.03908679374496915
0.01951331701800245
0.0724362011860413
0.5348198403805617
0.9010661199853236
0.5805106708404225
0.0943673012353829
-0.11256366083438121
0.08592452378792176
-0.0006241661438922902
-0.01243451216759691
-0.01361909652066827
-0.06900914279014797
0.05845310795560822
0.01640616397715719
-0.012585248494590782
-0.11441626260667932
-0.03145597403863062
0.03566137399189589
-0.03836590088160429
0.09842463214735209
-0.003371722432233186
0.05393165373114625
-0.030598309978755074
-0.024341660532193537
-0.08341718034367417
0.008897472649555668
-0.03019563266325987
-0.04457258360339859
-0.020403577115773213
-0.004871752942021172
0.010977366237174241
-0.016286727045000875
-0.030603827579272797
0.02492006783301305
-0.08251339243260775
-0.09679895813784112
0.03253386148182264
-0.012803682893114607
-0.020192619961940966
0.07151066514196533
-0.0036708745182667322
0.05736856494731929
-0.05252751496984828
-0.04936344639080226
-0.025181843739816686
-0.03317631795727996
0.035500455865051406
-0.034340079640274385
0.07452799414842037
-0.06033485540093612
0.049370588872581035
0.04685109543631644
-0.025056668072301527
-0.00529426234715431
-0.008000372537475446
-0.0002045165887529261
-0.0019195455714992255
-0.00039598268643815617
-0.04359146356339635
-0.023879767479811534
-0.01914467040110243
0.0016651883451426327
-0.12017664053710997
0.006713344686147213
-0.06619935849516226
0.045787859118540136
-0.03774831099535378
-0.0588620334184101
-0.11074093707218123
-0.03770966990803412
-0.004608777263415002
-0.04519053541866641
-0.001810005562027069
0.005726739759230807
-0.034777095927508724
0.02078839204360823
-0.06851148898125818
-0.057365180951518026
-0.07018789587284666
0.09658459219670461
0.1187812096458849
0.021171183357590818
-0.01715764232898497
0.05057727268076753
-0.03941192104027705
0.0170553188380619
0.009103583805175048
-0.04557422260163206
-0.006688589811350113
0.03745584432502111
0.022825695381127102
0.07175372757090634
-0.04674363573955573
0.008154971198723522
-0.03122786144469422
0.012799596947930647
0.007083036828891019
0.038835866420229875
-0.020198599332017758
0.039333731044759235
-2.2739664389193096e-05
-0.026502052702622805
-0.05029837074850925
0.002748703684516471
0.04474866576723
-0.078865108238255
-0.07003692813653244
-0.04835981724280566
-0.026890888049563463
-0.049412068414601745
0.03403381973630678
0.011502833569815261
0.029165857050523394
-0.018823854500795947
0.03314357895090444
-0.06751378941030413
0.08774245648029541
0.02797483107244649
-0.032886275809384066
0.015479408133386592
0.019899375993416842
0.03929481351862911
0.04156204722063184
-0.019389736728235064
-0.034347869779448946
-0.0126110274460292
-0.0320040580980381
-0.05132479780813365
0.01641133098488184
-0.006794607973560489
0.048402841130424756
0.00017694877405497158
-0.01725686230081998
-0.023777916938524175
0.09890916436598957
0.04398444098341283
0.08502871902160451
-0.0333909395598189
0.00134895882148624
0.030618927800038893
-0.06317522267104124
0.0636955627448795
-0.06046881725221364
-0.004375322180413115
0.11424095552905733
-0.052610494658185375
0.0464369740940915
-0.005820891419118734
-0.001807828555323782
0.020901852768924534
0.04350955808526779
0.025638554757831045
0.004768530496476839
0.0488298226777626
0.027519477887162597
0.044572968632919686
-0.01216797314046094
0.047563192295757284
-0.0768752895520335
0.039722728123219
0.03297086750342903
0.05130575229546777
0.059688061232814116
-0.07766394825272248
-0.0321008697989274
-0.07774099088228706
-0.02396405932849005
-0.06965771561063214
-0.025105576660129116
0.03842651155333058
-0.01235546641320496
0.05720841489815627
0.09610132741386693
0.04372840248056557
-0.01349378481386779
-0.011868585798987433
0.10176978641833799
-0.028705455213293752
0.04625580175751739
-0.003850076006744469
0.03430122087220243
0.0794202137638253
-0.0473416032729365
-0.028440795651115167
-0.06602873771259135
0.0015455258116241258
0.05512018849753722
0.016110540282373072
-0.03429279760683509
0.0021486449917632574
-0.009278250703687034
0.027673867367379743
-0.0582733386786407
-0.018793499423979072
-0.06400248427340356
0.03470655669029076
-0.009706713983609144
0.12207906394233654
0.12168181181137563
0.08375024688316242
0.11381477480044237
0.44537613881944244
0.8603274515336
0.6001140905736704
0.1947268031244518
-0.020022677857401264
-0.018580583550629363
-0.048015341524198535
0.10781187987405805
0.02977490854532123
0.12966769799928932
-0.06527635400282976
0.019761771941440298
0.0401847097400233
-0.03448935656982973
-0.04330794394215663
0.05352547435465815
0.05037250931091373
0.02532621364160878
-0.024600336813772158
0.06792210124587075
0.014919465076925154
0.08020695067219162
-0.005030867658666824
-0.02922431343032684
0.07630416127865945
0.04118205136232825
-0.007845016720874986
0.029004398477884014
0.011145704431535779
0.0830043634399516
0.0005811860957309128
0.011015644921817443
-0.04742310918624102
-0.017241532576572703
0.08113503886323199
-0.020725647897525318
0.024051530694651376
-0.08760072316837145
-0.11184772586126857
-0.023136201571436758
0.04803143471758128
0.028207671596885888
0.000719652800718017
-0.0027857785786600166
0.025285746483484146
0.02160061572077792
-0.026075183051809704
-0.040323562231182816
-0.004806883868072305
-0.023755203464063176
0.1469335710765779
-0.0787439062335839
-0.0545012908770833
-0.0182005669992682
0.0660657558988174
0.07215627564420175
0.00726698789360938
-8.175356581064351e-05
0.04154791738128643
0.05343422258491251
-0.02296539818282149
-0.00603348652523515
0.013902041864234686
-0.025001088223771978
0.013483500849582698
-0.06761616889168809
-0.04127471189422874
0.018274825171488315
-0.027750149085655026
0.09677664892207435
0.01906799216288789
-0.023553864530491894
-0.09767327530997562
0.0485198425743891
-0.0007480188016500151
-0.022081885164085296
-0.01973320453473304
0.01706375400313041
0.04004254769191909
-0.029763276923703726
-0.0912495708745945
-0.01822883433577371
-0.0033625445215456073
0.08020691668731558
-0.06737684095675447
-0.020455696398561304
0.002278979857854215
-0.0008199826446877812
0.0845817924638747
0.04389383817956712
-0.022552788768258225
0.01702052558860556
0.0722914504645525
0.040525413092045645
0.046399226152194044
-0.02793060600873734
-0.038984905863904365
-0.00941310983110777
-0.03826336298427305
-0.016214244634466392
-0.018464949088034963
-0.05050468224323843
-0.017351172269181106
-0.04368612926987891
-0.0004501160290849969
-0.003367812086010814
0.05378123943715592
0.05337701725689623
0.06586600105632677
0.01953524107489807
0.0038330851734627333
0.0037465818931437613
0.003685205867191668
0.06943531546120059
-0.06935621601101116
0.07536444095196529
-0.015170427313751289
-0.020976691751867556
0.03094293676015852
0.12312385167631973
0.0725357390422951
0.013939002792247569
-0.04494490565385021
0.029779698145931878
0.019760469038313133
-0.03989228159700035
0.012194345955756277
-0.04001606825507921
-0.013688543377166466
-0.08181836538810386
-0.011651643199297287
-0.03849010455411369
0.04374226218581003
0.02918850338909781
-0.07967095360557673
-0.04858406095814194
-0.001934811438814988
0.045580848851922304
0.006506014265009999
0.06964743063953097
0.011867195670864717
-0.05898553679833403
-0.011447889806064749
0.02045752508902139
-0.0581716234885965
-0.04330838759033928
0.02428617641963937
0.03450452462243447
0.029637688378576138
0.03454427201172603
0.0030250598759498076
0.0725027569969451
-0.0163139531453854
0.050654250555978414
-0.07557089718045669
0.00551959191431222
0.03151964708884042
-0.06245664911472
0.013865983345359371
0.12409309420118807
0.04243863562819842
-0.02213358950478754
0.041306803274971896
-0.02668385622546094
-0.08168611851809807
0.04424313632402503
-0.022193025670533537
-0.010172890452205397
-0.04837344619891836
-0.04946176647120173
0.03647325742905648
0.05654388460043404
0.0015034824004838132
0.024542352987471632
-0.01317217807801022
0.00026068567203690944
-0.047741990716678194
0.04221615852691918
-0.0009247393914649593
0.04781132096860135
-0.010546910011482937
-0.05787714656493107
0.04129512989939684
0.06516090696465249
0.044126931461218044
0.03463996268614687
-0.014068546567649096
0.11199230510010626
-0.016154844435878096
0.11611491950165434
-0.01839301922491104
-0.08922750172112259
-0.025628181807258676
-0.024453516469135655
-0.06794872019967038
-0.02505199979027535
0.02086551735540207
-0.02033221852702688
-0.03335694594924496
-0.04814248166031798
-0.05051987110203093
0.04991494463111507
0.030438005248934464
0.0414616092167178
-0.02083601573334713
0.07124744943777606
0.4358788229578581
1.0347849532928792
0.4523971887816015
0.1634154794599197
0.11980416936188057
0.0065987003015235655
0.06987149723753426
-0.010148171189289642
0.016304251233149863
-0.07377893797077578
-0.006843405344646653
0.006448189063545501
0.0007061526864500968
-0.04322085149975646
0.021887773629060376
0.0036225050464860986
0.07349756646487042
-0.01594038298458165
-0.02355395786197716
0.04058757806828171
0.04886550441978776
0.0321120469088623
-0.006943261725701719
-0.0887468119311184
-0.06655033474025474
0.05903318921515144
0.0734965096294492
-0.03306613911671857
0.007405351937359714
0.10086310312769325
0.07757481463285053
-0.035344482466567226
0.03081790585485311
-0.0012326466471066838
-0.019812803546936587
-0.02389293584772002
0.047628765118005345
-0.04765526389647505
0.11051189219250053
0.023844032806158575
-0.04595429805075729
0.02543661134930831
0.011923527770887348
0.039465111510949794
0.03040625536836057
0.021770742537908856
-0.05381463298971348
0.04711504490728387
-0.06725967130690597
0.07423050484789072
-0.11337399912665942
-0.07394711162472947
0.0314965941564881
0.0492661204150933
0.0008741715705460654
0.006234085986810456
0.05323737349193225
-0.043483738023877984
0.0014828034835265354
0.008774255526403043
-0.05505984780459741
0.06580867253961024
-0.04110151508379879
0.07692976787695868
-0.014195014891483322
0.06757149997685993
-0.028074586451917755
0.06382338264314126
0.14902767037541023
0.09741908300392982
0.03823704732289466
-0.051738463177273875
0.02175557213973665
-0.06871089436659482
0.024883837185947364
0.016636306565428104
-0.0026625522574055703
-0.010881575236455788
0.06378048970267731
-0.012321430038296482
0.022789031712481075
-0.026065667169642627
0.01635424598546726
0.047299694158111395
0.011091708841380523
-0.03199484747221628
0.05367494057066923
-0.05496145675635855
0.06292590683086455
-0.059788910916632076
-0.11288951491388395
0.06773049922603516
-0.027695257494726396
-0.017526548749828307
0.044024325490701316
-0.012258626816394861
-0.010410321719569862
-0.045913180762696286
0.05131631612879998
-0.050657556321197894
-0.010190379246190352
0.04998440024069206
-0.020964650425720373
-0.06726683594612409
-0.07604734632437454
-0.0024111600069263136
0.015750380326944938
0.04955811409142935
-0.015276350562187485
-0.008819390591782104
-0.0018862385828078622
0.0031617766716111003
0.03771937695283626
-0.022745099488917033
-0.04492162168144317
0.11894954928941535
-0.054525493402968375
-0.09891708560756307
0.040980593178133316
-0.00289802942778286
0.05024747705725699
-0.019408034385850842
-0.04060283669284626
0.035290842829297155
-0.11678816437109046
0.00015962973008995214
-0.031864542844107585
0.029398542744238945
-0.03738813601025003
0.07856279888306789
0.020465283243965945
0.031358557728425177
0.044951695762181235
0.00803095997400748
-0.0503370204404813
0.06657816324479383
0.0015948563872394484
-0.015934882574803896
0.10654499300401804
0.0004009526949733608
-0.02454052292664597
-0.008500233628143119
-0.011301118324157835
0.0011835257507962994
-0.001099809967316608
-0.01571966197287769
-0.09554866002524239
-0.029455814980039543
0.02464785562348241
0.07047916298803056
0.04140651537863518
0.000565218784462839
0.07513921095684228
-0.009311884826384259
0.0024457243675764053
-0.05204464267608893
0.10639506377326964
0.08337763786761294
-0.030667269689273136
-0.026449949793014373
0.07908440987903073
-0.040215002902867066
0.043247694554437846
-0.020847812610423316
-0.019290139657910682
0.014449370108352573
0.11787684814293838
0.005518322079774732
0.08449343282199312
0.06870281632150904
-0.030560461770304467
0.0015869733349796592
-0.05741541644043396
0.01942180246260068
0.08704778769820856
0.011442578670132793
-0.007914985219791061
-0.09783837471883265
0.10148370245103444
-0.08179493307455546
0.07234041898090313
0.04976014095720839
-0.006326730767503833
-0.09163281619192355
-0.01579256358262508
0.028538367792932146
0.04133024673985192
-0.022403955031266038
0.016617684585230674
0.09320624981878019
-0.03324006522607734
0.010846934323951823
0.06098816748824586
-0.05276562616233821
0.03568977403994176
-0.00635501233305041
-0.0028936093133191576
-0.06752956088812569
0.11726769473176644
-0.05602769565721865
-0.03895196811547308
-0.02076825906701887
0.03822845371867902
-0.03909722830511866
0.035662272508493575
-0.047105349421381726
-0.015519901885831983
-0.0659244809146213
-0.07643878429425725
-0.03399883188978702
0.02691692578506429
0.04853280566040082
0.03097880008224827
0.08903499483893984
0.4765814221459901
1.0197234848687018
0.5413930821625133
0.06911997669592047
-0.05061015087316376
-0.056584545476396964
-0.01225792676135444
-0.038065081732379456
-0.017345356035260388
0.07331630142452933
-0.02160396795044868
0.09272083344547816
0.00041280063183594815
-0.04715177695544242
-0.053255125369543126
-0.07414630322664134
0.036116956450983964
0.01381585909781166
0.014236994759466857
0.08584178456954357
-0.00174794350409501
0.03343102232778096
-0.030626898871266912
-0.05830998994311368
0.03412560024487418
-0.0007120993306861523
0.0037778592755566783
0.10824752180513642
-0.11384956024478483
-0.05685181124311907
-0.030310163576612953
-0.14427742339206842
0.08382974222771847
0.02031488102107675
0.01417860907410473
0.03340774072038935
0.007046398071632986
-0.00600629547786256
-0.017552704575475666
0.02754749136170693
0.0063743412384603924
0.0682689685083562
-0.03566367873157623
0.06026701259577873
0.02931764545850083
0.02275068697091182
0.020047907415085726
0.06451170816964294
0.04571227872644118
-0.015589110500907798
0.043852849688844356
-0.043279839291857664
0.04177059728016265
0.057458889132899066
0.07219944472659774
0.09627735069128045
0.000545175842808466
-0.019170194923277827
0.05701466951737469
0.030826900833504995
-0.0037219678318356655
0.025295544548181222
-0.015979531469734586
-0.06874327034204425
0.06471732718095902
0.05433470904296253
0.008166164680886694
-0.016238792478668947
-0.05195531582531927
-0.024936945415739327
-0.009893192476689548
0.031129296548361586
0.06432239241550362
0.03550118285772248
0.06331674965663946
-0.026922763270999236
0.03195973283983061
-0.03518797439445132
0.012277924328215555
0.05128247322930799
-0.049372238166545776
-0.04818390414098147
-0.05672103044203543
0.016059222238302317
0.013379187116759936
-0.014785780685444866
-0.09853425406924772
0.02551012725309533
0.03488467057129489
-0.0683163289731296
-0.07442286459043242
-0.013068491013539851
0.04707075659213111
-0.02348009305434835
-0.0419847022616189
-0.012518106696078453
0.028451746751893155
-0.006765391157502568
0.019427034356631862
-0.07566839416768494
-0.03642585737609382
-0.021960601747019345
0.04077204846025842
-0.016402604151896722
0.008188994375393128
-0.00038601498641099066
0.012465691647876602
0.046249161144108236
0.024808605781490536
-0.060776332026463833
-0.07792562233113375
-0.012280961207137491
-0.09031840703724242
-0.06325933922373239
-0.04679366728549161
-0.06081602067523452
-0.038077821420512
0.06376529457163775
-0.04078830930497154
-0.09173882377178225
-0.013915660503555164
0.090175446545349
-0.013675346492344849
-0.03274066737429244
-0.024835526813572692
-0.06804617172874765
0.0012845104191771435
0.04176204892680329
0.03375105520486032
-0.05563177717048384
-0.015519605899257428
0.026506146571290412
0.008830559292527719
-0.09337428611815524
-0.06661406792209872
-0.018057308448434325
-0.010004750655784711
0.03754385127172347
-0.04078122129846508
0.0018192133116194734
0.0017414472510894879
0.006596454442007543
0.008463235430504595
0.03611593620776382
0.007083825751790562
-0.044976724479640295
0.04177195270181955
-0.08377312661020965
-0.10511297877446729
-0.026122546376816925
0.04282039969398374
0.0980529531795219
0.04133871831201493
-0.01430509656771043
-0.07061634985136037
-0.008322968053932818
0.00657529839309142
0.0906754219193201
-0.03224726564901628
-8.556101746720452e-05
0.02653259261348863
0.04620327696247904
-0.017374323167481585
-0.0007191248353513249
0.04472362380903414
0.017804143032315027
-0.07935712876363392
-0.037802444659258395
0.03741330844382844
0.01114428284061801
-0.08970462208259387
-0.05538364196448845
-0.03201148252560187
-0.013008472890833057
-0.05388102383480625
-0.02336135506044915
0.026283348897837896
-0.03212522768507469
-0.09473447477441449
-0.04652377280110958
0.029538926882391098
-0.017085923840837916
-0.02829296370715947
0.06240467507175319
0.0646829207778508
0.040231232159116045
-0.055944810894175995
-0.07410429526947279
-0.12431138026711064
-0.05382051798537593
-0.015492468310834707
0.04005186910921137
-0.04084575887932823
0.06762987713003689
-0.06393028326780391
-0.12632575533527993
0.01802490666310222
0.14312361830853865
0.5101321686990797
1.021548907501173
0.4848488925119416
0.030153929602118032
-0.04374973806784499
0.028814046094411072
0.016846268940519892
-0.014425472837539734
-0.04250953109777504
-0.05745791477786934
-0.03343860541758679
-0.005456539397799344
-0.06480167127569181
-0.011260412538035398
0.06950044086103384
-0.014844898252934922
-0.006233542126354375
-0.0008838442875074454
-0.07673487746412039
-0.022514272080855276
-0.019054176548620873
0.03386693235917387
-0.07001036308990227
0.013771967898621089
0.03996078402447471
-0.04477105265399481
-0.013924237202243648
0.008359283457439711
-0.06690883487567989
-0.03763434445041105
-0.13069070730842505
0.06266823590826258
0.006300953831473572
-0.061926032028712774
-0.04139907190149592
-0.050476821672564634
-0.08699740758396109
-0.010502527710707837
-0.023639775564300938
-0.007730664356149156
0.10627394087874764
0.0337174105857075
0.017878292986026622
0.005936404720295818
0.046766644782945434
0.014310597304146331
0.02057423608009894
0.044339065809311545
0.017256580154379312
0.040439492339355065
-0.07518178811060582
0.06200335691702339
-0.07111297695446105
0.017130614160632423
0.03352334731808391
0.13355098098607615
0.04344417150967689
0.06505967818278258
0.07008688078770596
0.06865683068807732
0.02985789130101295
-0.009175108130341189
0.05782759575247065
0.025956567227421214
-0.0189005111664404
0.031412824442852615
0.014040924436504601
0.07057313166076033
0.07880519100471328
-0.05399039310659753
0.059367118967881216
-0.05843571702389181
-0.017098302153658866
-0.05030511463724235
0.08026092879713088
-0.039630678127131364
-0.03923238097129934
0.0350865728194506
0.09092064204415037
0.10059787848978674
0.03867796797042228
0.09055931860336917
-0.007271871608990613
0.0249333379918378
-0.04572125889864462
-0.005476293235027667
-0.01868359336878794
0.0763349498879175
-0.009506596764009133
-0.03636537202210086
-0.04019185698527797
0.0593659881241663
0.10671166571790558
-0.04088302772029773
-0.014565286091221923
-0.013960322572667341
-0.0055460833437344995
-0.07122824000346947
0.038891928720206456
0.005061368402883121
-0.04764217868800204
-0.13770577318248226
0.03955081100127335
0.04465443070838812
-0.014960519359361456
0.017848259085365286
0.020074653166006207
0.09104701039017166
0.051484647447415544
0.039661371418724375
-0.03230237576536268
-0.037037776870658984
-0.025424824041596513
0.040722321725897834
-0.0111332640463509
-0.08744952146129976
-0.026315251924682433
0.03416441630308593
-0.03417249358807482
-0.005426482721198427
-0.045096406925475556
-0.03649439863965751
-0.0530015723274772
0.017649240006799814
0.018736597389898756
-0.047175268850334455
-0.041793840804339094
0.02186036711171142
0.04242045728475285
-0.00962538306501561
-0.0018495021150986533
0.037799748093577334
0.10947401864390467
0.008183303636648272
0.04215005354017387
0.05725639072972162
-0.05223897716701823
0.006398674552241815
-0.014691043198539559
-0.0038132501246315956
-0.0010675778726275146
0.03460090419553248
0.044690203592734117
-0.12516310516220527
0.01792513409527399
-0.03542893199538666
0.11582615258393883
0.045276563083383944
-0.03592552237431916
0.04838505813483224
-0.05874475226871006
0.035380300299134394
-0.04060950919827369
-0.0809618467600864
-0.029200272566845695
0.003541726373864765
-0.030034003916878146
-0.0030260355536902758
0.010517246923985896
0.041013261633432836
0.04670120822951271
-0.05840648912366289
-0.05342895169588807
0.023389484707860397
-0.07342286516674737
-0.005094562976403192
-0.07853755518640347
0.010946243585923433
-0.012036271837029482
0.0392559260702402
0.09806324752247172
-0.06578025918686675
0.10945233538568039
-0.032444117631429514
0.01589402216848782
-0.041134793606312864
0.0535831287562285
0.026898776191947887
0.04948443764178025
0.06295425146424498
0.020306269058690204
-0.022254436207435502
-0.057586444019133036
0.09031313792748485
0.051937083309341804
-0.055894350028371946
0.044664076468589886
0.02315668450348561
-0.04858963086076279
-0.011048109661607792
-0.1269722328088748
-0.027159367748456616
0.02401337984320403
0.03413956487544003
0.024924108325785215
0.07366749068204596
-0.0349773276527112
0.03444685793818426
0.034638838573499024
0.10101826029134944
-0.01923930776911055
-0.03133215625155284
0.08442613983319537
-0.1623311488607527
-0.013401335439665193
-0.06010764215969588
0.06199379222417443
0.01268016695714763
-0.021793262632508033
0.07520330942110444
0.09640260259331151
0.5228193356809231
1.1313852665206936
0.6014114208881479
0.0059272793916235605
-0.009709343116314544
0.01637633501386022
0.005235228359911369
-0.002190717208679854
-0.02477173596674289
0.0023320628267134206
-0.08521596364672746
0.02484513341669733
-0.007480256537793835
-0.0350747183620092
-0.00014049916412856486
0.054365875492947316
-0.04870371354082942
-0.014777483125795052
0.07939786259853354
0.06876352377937388
-0.009532730554140365
0.05302577531072218
0.04114952528161679
-0.008797261732909267
-0.01033992318151104
-0.02006704522610728
0.02866418189615484
-0.09962362265396693
0.03754484805450223
0.04654569189121883
-0.010687253179174298
0.03718061527958324
-0.012555738350810423
-0.0006432357677541595
0.06511049462146727
0.017263451332501515
0.03481452417521824
0.01135151291066927
-0.019928134271911854
0.08777141166850577
-0.07506400530198089
-0.011317249990829063
0.003637354499069354
0.026709144257222775
0.03526561355365387
0.09345052240890234
-0.057515838490835025
-0.1027748430524855
-0.01996838780949592
0.09745533865251942
0.026041525302957037
-0.03219797775113638
0.014300887553479103
-0.005304898963663998
0.02762344283802683
-0.02293412836456205
-0.006033549157877068
-0.10559666718214814
-0.028522075840375263
0.010431591338135262
0.0032136606793790193
-0.039065275174336445
0.039945895338428065
-0.014328929061754161
-0.019332302800896026
-0.06401030368018706
-0.07121664714672893
-0.07114757662459371
-0.008819073492476124
0.0850303782466472
-0.07876945747921144
-0.03357121268525622
0.02257077845936455
0.03359932048539232
-0.008907980945378119
-0.0658404973680499
-0.060875449171996866
0.07310385692937853
-0.022522934364319198
-0.12651463715670783
0.010208580840833632
-0.08711589296610006
-0.0669040207664514
-0.04736707351412245
0.040172243827601595
-0.01593413039111839
0.060647935392894814
0.012312539235652313
0.017882028689240756
0.05080559118992441
0.05871597471956794
-0.08311610937840339
0.011330033245928335
-0.011922960045322388
0.00606165586094816
-0.0550116587302569
-0.025780130141202513
-0.023547599549337384
-0.06938980802777027
0.013485739257765961
0.03481241108051854
0.014203895988255812
-0.020385481782594857
-0.01232298494129903
-0.018367198744060672
0.06428064741684238
0.034956599492249996
0.0035509400957134613
-0.07651786607803045
-0.12444175501773132
-0.009578101091946916
0.06462665976153195
-0.08659913544687714
-0.09778471821608943
-0.05433539379177238
-0.043812348452403505
0.08505762324891886
0.0362013004735568
0.03105822731498626
0.01438484320519786
-0.09432325356838463
0.014293291158108574
0.019995101283623015
0.04183099254284456
0.027910128578844614
0.11912895580402948
0.02831584333868527
0.014714003626473043
-0.05958020833104641
-0.01992735363820135
0.0026420877507837928
-0.033040714004787246
0.06832918750722473
-0.03644291212738437
0.015422415423404707
-0.0019217894509414716
0.0014588364453353474
0.11067833590165187
-0.0744185511613731
0.025066662394144863
0.03735060140553169
0.0334244198386746
-0.05854938683239322
0.011848746909383213
-0.06838122484896797
-0.018919764073653207
-0.07697765910677884
0.0795747530552907
0.032266114653470804
2.442803006352288e-05
-0.07226085813348108
0.018427323616782638
0.0707698619433897
-0.10346737051600233
0.04358094754495677
-0.08639894480093785
0.007321496114433676
-0.0003861319883523147
0.07065967384773897
0.05940039825258431
0.08316635581738105
0.06576595191636592
0.00039912946193591055
0.03289392390550484
0.025419803951604782
0.016628611690844217
-0.0023074094583608773
-0.028313625140316018
-0.04947760907535761
0.01200409211565217
0.09630106448960793
0.09289627759600053
-0.0002195645250529281
-0.05849103443631444
0.10679239196155631
-0.04882486600075159
0.05886731996836493
0.013051522452457519
-0.06091517456851352
0.00976301549870635
-0.12183514606857809
0.05499187517046155
-0.06825391100900065
-0.02658902893038222
-0.08979538197049863
0.0383158060075018
0.005478174858797182
0.04964653423595619
0.037446089283775526
-0.09939124385652284
-0.03655565339641243
0.006209752761607471
-0.004865001739872473
-0.019694790811846996
0.030512886512394522
-0.03264124828444002
-0.063083801207987
-0.08105796040060027
-0.007777670062082402
0.029721513382886477
0.0509053907086817
-0.01834630149857365
0.06049074640091676
-0.001780537694727069
0.018141101442574047
0.15687358284046693
0.44299710451674446
0.9551745918861306
0.5517699611859883
0.04193943036608973
0.053147572106996825
0.04477719281502049
-0.012030661745426045
0.03153683733421597
0.002294812858687153
-0.029518523001652308
-0.02767542788224266
-0.000678333000882375
-0.04509429987071653
0.03623084843490531
-0.005572747371290618
-0.13234806836280674
0.018467346065117594
0.026790541569345183
0.017641689611279425
0.003300161714654454
-0.08413442398300802
0.03213262047184491
0.015900086215089045
-0.026231148968353338
-0.056992081840096034
0.059996770712846086
0.0025476683873508054
0.10728332821238949
0.014788280005481597
-0.028534843164738945
0.02238653489866069
-0.026098935428460618
0.01828211150332786
-0.02195152302035344
0.07714873940838761
-0.012862545767599574
-0.016673761840237746
-0.014027541051238594
0.0049368286993507655
-0.00629772844665157
0.012759957201407752
-0.05877835639525476
0.08309582331577242
-0.0303527483668694
-0.03362407436010087
-0.01343858341475218
0.05148263746882428
0.02968336639812923
0.025453038825596824
0.011117548674592706
-0.05650501764569667
-0.01882733723113166
-0.0023704869736161666
-0.023376319134735826
-0.04355038551996418
0.07272012587475188
0.0356902214383306
-0.0473936241611235
0.016621464950269185
-0.03521753533959328
0.013371869953568611
0.18353045195031667
-0.06646441074782426
-0.04631928022003423
0.029560201751772965
0.08381628928253469
-0.03968404406248658
-0.011703775196130093
-0.07855725542710869
-0.06208428664683118
-0.03702592143400578
-0.010547583465174636
0.10263779353715632
-0.0943500328810898
0.053225684608118766
-0.013318580991530563
-0.035659771869551236
-0.04929809170523152
0.06199401626467713
-0.01339801963099825
-0.09071528287770124
0.05307323679026641
0.06759704313617153
-0.04691656109780492
0.04033240981520179
-0.060210390454594837
-0.009246457625203744
0.050232010158168174
-0.07682475546306661
0.05240147053683093
-0.04753867392001694
-0.014387050972214108
-0.045985454381782045
-0.01953868864760153
-0.00837831470485237
0.03006951859719162
-0.009641626266123783
0.042959149459925516
0.02372922158212655
-0.034296632517935
0.053441137242787456
0.018607222881829238
-0.03979392532960787
-0.05967893727559531
-0.07624003171893856
0.051998356533541845
-0.03370907990062393
0.057501922382200636
0.0049081390243266776
-0.027152919617783596
0.004717441539371838
-0.023741969892734256
0.056061987766484314
-0.0333332714510765
-0.02596215291733156
-0.08105205891415121
-0.0005290434399678592
0.02218577417157872
0.09064263306734222
0.03417895620950357
-0.011057222414291022
-0.005345315284949359
0.009832815507211976
0.022105658081846735
0.008389989738519295
0.00888299853919157
0.008266526250725518
0.0765455903371882
-0.0074328057549711965
0.10930548051987193
-0.02712558251009749
0.03837298359607138
-0.03185483166950379
0.04138021211515617
-0.01702272784385647
0.08031558978474752
0.029560718635539614
0.03915839170083019
0.06949862136611365
-0.0464815750015389
0.0020008461641823883
-0.021229027948418175
-0.022949927887544262
-0.0234985788351859
0.0342754390482383
0.005590019071774284
-0.0020999623518385105
0.04205507180127222
0.009679613469384129
-0.08396037201826727
-0.1040312265922975
-0.008405550869651885
-0.007345910521872359
0.007985097986621144
-0.05152877797955596
-0.018373019728549492
0.03862540842997254
-0.024165843998338203
-0.045355983626968875
-0.04626824250289216
0.035297576588640016
-0.019740560902047885
-0.054597418855933416
0.04710854338215448
-0.0231041588112852
-0.08667163107372834
-0.011058693132334993
-0.020050279192809217
-0.009763136792424371
0.030123078354443618
-0.009809480496148545
-0.05956350423349277
0.053771809994097336
-0.07839402513319628
0.035370424822831315
-0.057610503635747747
-0.04690268907621775
-0.08611503034915029
0.056316800569700065
0.02619535343645485
0.12394744768982585
0.01502308490956556
0.044638379073240114
0.04312804641047274
0.05613066689548211
0.005324436649556457
0.010233368184040283
-0.07220455202232462
-0.008835309922815393
0.042621263878952806
0.03332152242626307
0.02055808366945136
-0.025735036386196813
-0.012341393162511826
0.027077471247349123
-0.08497192286246374
-0.02902350009986739
0.03677026617096664
-0.015294531084556584
-0.059681252251319476
0.0100614299261194
-0.01705701297529075
-0.029172685899387513
0.01554153648600002
0.015332656576232596
-0.09733162180673013
0.013301997292418145
0.009732163860328883
0.005029355072591432
-0.019943554130332185
0.09114270492460012
-0.027692312891838117
-0.0011068967262054153
-0.0667735318306433
0.07618172584855999
0.5021345959635253
0.9910946275909677
0.4742446655340693
0.10627273036377397
-0.01798248323611448
-0.008878031364265841
0.06703179068666475
-0.08206033996541906
-0.0665185045396327
0.010743561757372974
0.025364945829653558
0.043107543691351724
0.03422268347808282
-0.0002493128666710035
0.011461572937058982
-0.05454210968493816
-0.02801550839041261
0.0018193164678730674
0.05986981470392588
0.05149828753135291
0.04273068181467488
0.06613315270868228
-0.0325138812590009
-0.055292123435986586
-0.07707697737689828
-0.00970927306157136
-0.013933059005564893
0.022909569225305987
0.023198347518798082
-0.014163278370421887
0.006306177808427311
0.0028385161762172375
-0.06399005551269474
-0.024439610935505326
0.000659359856771381
0.008616153165266718
-0.007470245552808709
0.02857762060099275
0.0016995164287807157
-0.03348673855392444
-0.15036293922197375
-0.06163407949779311
-0.06578138799252733
0.090935984375863
-0.0023263839850719346
-0.012715308932848774
-0.03556209157457563
0.04482996754061019
0.04481025214952013
0.05080725376960104
-0.06328458312612133
-0.05365999998165062
0.006538462859137586
-0.10305978519351332
-0.12080850286913954
0.013066404220697297
0.006158659951569827
-0.014800789982670606
-0.02765397597917864
-0.12180153096652302
0.0020249255328128567
-0.0431519468423832
-0.03873040618009632
-0.09350931194305692
0.0242691397359672
0.07210306772657797
-0.018967070263527633
0.0673956691724333
-0.04712956524422175
-0.0007081914336236471
-0.03639661081884218
-0.032390264473194645
-0.03621329834252993
0.021373668172839668
-0.044543483748539475
0.0007730949772130753
-0.1076082385319066
0.019057272915893163
-9.217493933240688e-05
-0.01294446325780006
0.013420175276226935
-0.11155365259077901
0.048043407355835205
-0.056848531127004026
-0.0494257190636849
0.0016553291580638332
0.015042375795925593
0.01698033738238226
-0.07223860853975565
0.016297456869345188
0.02883078621534233
0.01274980023163829
0.03826807768190797
0.02725020426724949
-0.018026617130619833
-0.04178141551260417
0.09723841341781325
-0.09564913018610657
-0.005897991696488989
-0.06970450489855111
-0.02593191907053502
0.013888808882823843
-0.08300407939916138
-0.03621068844505123
0.041523269891176134
0.0036930254239005197
-0.033933911253640384
0.028545107976260982
-0.07044064438504088
0.0203397008119912
0.057260511709037655
-0.0038978778456193264
0.0004476554058299085
-0.015375941239448913
-0.06918339196183135
0.010210003371110297
0.056092698005536346
-0.003277956626599526
0.08326260789209024
-0.03624124322080305
0.0770574749952726
0.029545595284214233
0.03954896119948442
-0.04024086236400787
0.06127672030846248
0.00048753605072821883
0.030116621408959862
0.08254372379975372
-0.018634891538673447
0.06342113679855868
-0.046942361859279025
-0.005693462621426714
0.01520235621071883
-0.038600175254920197
0.12005472063654782
-0.08328284458059795
0.02130488447421339
0.009650731678865572
-0.01720319625933894
0.04489880216769849
0.03985973021586404
-0.00011648753496515526
-0.021705336500439678
-0.012634575478703903
-0.011929120960156392
0.04922369510283571
0.01886557272119542
-0.04612919821985959
-0.011906081545542053
0.015610870028954976
0.023147675380013
0.04533117420969108
0.015512264777816571
-0.07576670385522749
0.028492651590190245
-0.04233614278503917
-0.025826716874109968
-0.09298514816730614
-0.016638983472946563
-0.024856583282055218
-0.0023797910683499906
0.04659920677838302
0.001718468187907685
0.014352584117638338
0.06754829022775309
-0.06749645983138075
0.05623859574949132
0.008533670237222487
0.04268585897893288
-0.06449475556232032
0.012003622011109749
0.08817131526496629
0.02947484241809148
0.008350744898327328
-0.06450118093936652
0.0026140382518548217
0.007110899383077893
-0.03255809390865224
-0.024000637613455302
0.003301905570459575
0.05143606878359133
-0.08072435437658976
-0.024851635868305577
-0.010052298053457894
-0.014704502115037255
0.06524563352403986
-0.045417444923506634
0.046043115282746565
-0.05138207222748299
0.01761386458051896
-0.06898997111847267
-0.06114312328987646
-0.07810430014545197
-0.008387899919892004
-0.029472195539902775
0.1282887226000177
0.030513038625133538
0.09880442324266991
-0.02277019558062371
-0.1122831273504993
0.022742853688578354
0.13118122879672628
0.486628414945011
0.9960904474705844
0.4516955885510322
0.13228576592901126
-0.020857961454103107
-0.03604743964447567
-0.022033350020940194
-0.0118221600099717
0.008390448795302026
0.019470824700955555
-0.05027055901326516
0.06236679962528836
-0.021843914445343428
-0.08621330535538559
0.08339401963314569
-0.02792148699398299
0.028202677476270973
0.00146969488196355
-0.032757011305416125
0.004404950673268127
0.01895017093517438
-0.06887336181772181
-0.06175200425773147
-0.0399904212216428
0.028151736750202647
-0.0020411616253114538
0.06918187125425067
0.03182362977265686
-0.047112506801522264
-0.0066333188294348845
0.04104240183141927
-0.0007136658634598197
0.07065105142787227
0.017640981486776456
-0.05528236737315058
-0.10188282431667206
0.037296267253906584
-0.024172200055688646
0.02314972319471371
-0.01616465016770965
-0.004698436467149213
-0.02149093597727463
0.02043168703537318
0.03259649974109111
0.056875274850385106
0.03346844218487806
-0.02161716794359697
-0.010968557593676936
0.0495069681111027
-0.026879187436629145
0.07267825467594517
-0.06922416176177507
-0.05805390764208847
-0.02243424338127745
0.00976674844169306
0.005159793943917887
0.02154131687068228
-0.07884988217055042
0.04977638609418801
-0.05451718335261874
-0.015451591313668049
-0.06343646623844836
0.0005730087244047649
0.01912376940095587
0.03815152800120969
-0.02800602882862423
-0.0187273063680582
0.0010835302327073784
0.139599949907841
-0.03437823598856834
0.008875128891275098
0.03811293811576985
-0.004560418372781803
-0.0510420308498237
-0.09413140081979629
0.015474657959005891
-0.0380458550888976
0.005884652479646788
0.004151829112163716
-0.040557606193267856
-0.002944552210932821
-0.05227662575165354
0.05474204853261832
0.08727443888309008
0.03525418463292719
-0.017213062413985864
-0.06547631998866393
-0.01756716654409987
0.005754598092902465
-0.009550978988893875
0.008718575830055695
0.04885725921313113
-0.09744934146472667
-0.015015051969801702
-0.07259514887765188
0.005311865523128619
0.038472046009306274
-0.009084021537753019
-0.02358642884689842
0.06384931983741444
0.0737176855080923
-0.1663290446408569
0.0373607394497479
0.010240286997027656
0.004936519192587245
0.028656243178693974
0.00825427644447124
0.03796310202901729
0.047224037843008146
-0.02422390713289288
0.0026424687678653167
-0.026570924960709466
-0.0625540689976158
-0.008286460205873801
-0.013503932131575639
-0.024329738402198837
0.0850620518713119
-0.006866493338154181
0.029656129003151552
-0.03822054114544393
0.015756088341592582
-0.013247321770616617
0.00011447926644838347
-0.0017566008595163976
-0.028685992382531136
0.03750436129406501
0.08181239640783297
0.03706403232495358
-0.06812983259125395
0.07476290478257096
-0.06731434465606334
-0.0043652339783516805
0.018494037076302504
0.010030299634186071
0.01729715426253157
0.03790082721895074
0.06620932965763052
0.02967361661121888
-0.04544211132500242
0.0034049991976705415
-0.08315206808196851
-0.03151903312580043
-0.07964787316761253
0.025222286086858593
-0.009003466556067144
0.049327855687960304
-0.05508614420369318
-0.04053814288028589
-0.015527773665986958
-0.055814073685161586
0.03620098508104271
0.012632393612338842
-0.05588319252950763
0.04260600491857752
-0.10831137063050551
-0.06010776629188272
0.0599057350555651
-0.044157154700994974
-0.051024325295292064
0.017957805246462972
0.09917142902912333
-0.11100886042111911
0.05289887831698216
-0.020043275813628466
0.0026290444742571497
-0.026929439621251085
-0.007231817733442275
-0.013663464079660938
0.02598550853916889
-0.07084560749440352
0.02807685021439782
-0.011827672499409062
-0.08509128929553628
0.0286981092891275
0.07158892232899387
-0.0116097146472388
0.06529598873075175
-0.007217881655690955
0.056414533397658354
-0.06537722787723264
0.07021291882990886
-0.08498404342394866
-0.022995096510549522
-0.06836904261976771
-0.009235020293708306
-0.05156428919521714
-0.04544933877151319
-0.05970337589912457
-0.05189282121598074
-0.039238820362416105
-0.01510211477817036
-0.05714594192900655
-0.07668984586353826
0.02872931440621869
0.024286065300209245
0.03255785256094882
-0.022985222248836673
0.004127649441817829
-0.008129568819341753
0.021997461391643214
0.1313537360351406
0.014306836918391555
0.06855001631403683
0.0776269465472118
0.04033384806895514
0.02647436311234701
0.008792175239708901
0.06300892156247385
-0.027900007798502102
-0.034382886314915866
0.020794060653067433
-0.06597938978899548
0.005108638721971188
0.0271709431184149
0.023329201238832843
-0.09212112167702433
-0.031153264587544804
-0.013510048149641669
0.14661791033421692
0.6151698267542023
1.048906724596759
0.47305881923457455
0.1093472307998673
0.039607565062590486
0.046841415248581014
0.09765258234633283
-0.04996711073782285
-0.01914213965659181
0.03981450776097953
0.04838106729390049
0.034493567308174364
-0.02441843627388217
-0.0036142486842641814
-0.03883425753439038
-0.007335161601360141
0.007524259959308242
-0.03992559190955064
-0.0570364389532015
-0.017217606527266886
-0.024342975292654178
-0.06770418525184857
0.05935640182135558
0.04935515837101419
0.0007207618902327087
0.023445076229291328
0.003312711687552521
0.032598185059578726
-0.08807637559747815
-0.022413221452926724
0.0012564094177270765
-0.00977464714809894
0.02292674198707769
0.06209781135602693
0.05234715964006517
0.050783946761601195
-0.025659797696504918
0.06247300939061723
0.03496084485295727
-0.020770883185008013
-0.12464122983416737
0.007249689643513239
-0.0315914423701206
-0.0519595710552476
-0.004922241110423481
-0.004231926108775212
0.003008319969806749
-0.09327473919577689
-0.0047239848489847415
0.07442301483163775
0.006672269079654173
0.054164727374261694
-0.036080158879765
0.044554906929352434
0.0059334336211095615
-0.039475200167936084
-0.05804577651916948
-0.0482232583223626
-0.003940712450333014
-0.03201160087976795
-0.014420786625731916
0.03916843462944738
-0.032500883651220586
-0.05055701841949456
-0.0615660656461258
-0.00424116388998047
0.061195543390873325
0.03989552635671171
0.06143302368237922
0.018260856985157496
-0.09653173847639278
-0.03546577577842291
0.048730461813289355
-0.002837121293982449
0.028704592605643134
0.09924065102853503
0.04361634178106384
-0.04611693990264489
-0.05588832104440621
0.015887547285399765
0.010097908533801405
-0.022979411760466847
-0.04018953446320706
-0.0821538556830011
0.0847345791568625
0.04096024518642706
0.050024947585880955
-0.037039521066185827
0.02444921181915718
-0.054600019964131434
0.07831735553271972
0.05643019894768741
-0.050756932105452596
0.010127403464889393
0.015936754041120813
-0.05961271702010909
-0.0041374724219011075
0.05301555576556177
-0.01822909778580933
0.012115613176258446
-0.003704834696527757
0.033262303549978396
-0.04865407296699687
0.01500072782335907
0.10745108490766218
-0.025741664401281256
-0.016597911625280657
0.0287304013092972
-0.017780384695333898
0.07268140063301552
-0.027711465789830782
-0.0026150650161029885
0.03901088492869195
-0.03578773630579344
-0.013816593742612016
0.0025107388124073447
0.028932265617880273
-0.07623199744219974
-0.010619505169848463
-0.0997955886241587
-0.0554407001130418
-0.04273887308581058
-0.043559700938857936
0.011888615924530237
-0.0032414636415592155
0.06012493334386061
-0.049988321188992935
0.07282999834516611
0.06071477980098509
0.07489728807595483
-0.0013949790731935172
0.018525507162940474
0.015930281850576822
-0.011540998173463352
-0.05071258254141606
0.02235538701821911
-0.040498236456264144
0.04543702155377703
0.0034737957343118513
-0.04912172019380143
-0.013009050219515476
0.005629873749895338
0.03445162096175177
0.06376408219267087
-0.01509840405218909
-0.03202718253243719
-0.022814791450505675
-0.005975089777438191
-0.029466392155480955
-0.015027170747640371
-0.07283851554975698
-0.06302955421505461
0.022320521819654132
-0.0662264852757241
-0.03295943473272159
0.0069045199852503574
0.04305447494579982
-0.06783938110507785
-0.03254802976953466
-0.040344585885702694
-0.03949920208957021
0.0015230491288748228
0.027840248051523714
-0.04170883911912268
0.0626305070397482
-0.009863098516531471
-0.003327690834357764
-0.12609608546999926
0.04670574623718457
0.012244375781950612
-0.02719131872138792
-0.04619142635900506
-0.05504843666408295
0.02048423063747601
-0.018316852470218442
0.05019843233788232
0.06965422870352576
0.03987718119869117
-0.007824938730581777
0.0596852365182691
0.011664911135376366
-0.041519507038249366
0.026858843874144413
0.05151183842797498
-0.04924951285250452
-0.032159249831100016
-0.012140890887428079
-0.020253242268996764
0.010380234058874546
-0.05545668762756356
-0.14004220339591655
0.00016223287204424508
-0.004302865503006621
-0.005471007528421272
-0.07371463154206444
-0.049082609271654115
-0.023194701976403595
0.042444279599299924
0.029908913989109484
-0.024870700660404248
0.068742566998033
0.02261035528448157
-0.008492694805511439
-0.013767203078853513
-0.024328333308724474
0.07763949068388576
-0.1382001528658635
-0.024015151620325803
0.1994487490516129
0.4645042496930167
1.0079493526337193
0.4253203963380982
0.08832487858358637
-0.05044241792930282
-0.048042793109882104
-0.021902741025591255
0.011464738163314774
0.07593694422546698
-0.023920543793164842
-0.025399203726797888
-0.01575167268718901
0.024014483733726198
-0.05521586490958235
-0.039697679875687564
-0.0697059979594052
-0.03818268835790682
0.0574566741287032
0.03152655025467312
0.016964830199093808
0.0056923201401013245
-0.011594858322045765
-0.04755479431493562
-0.06792065623196004
-0.002558051637248869
0.06741888850803554
0.012982385452888188
-0.012378358985676484
0.00025235506315946074
-0.0565188836952787
0.03195257168942105
-0.02992160476329931
-0.028866632560076252
-0.0033686361247800287
-0.0730133261964074
0.0412566633859735
-0.019751133576592472
-0.03973776942649612
-0.04163614056740521
-0.03741235471569342
-0.03540534120087127
-0.032416169930674164
0.02360762633505375
-0.011781601594731761
0.007868121302572443
0.01051075549942174
0.0008595132294303518
-0.030631809790078374
-0.05030604222057668
0.011240776735512648
0.1097389921763443
0.007675539931583529
-0.07645789664627911
-0.024199411431980546
-0.08622224790822258
0.01707663694504242
0.01774510560262028
0.015772685982243788
0.11325181365716946
0.03235785964368171
-0.07512770712354412
-0.006271289300439734
0.01861589099281641
-0.07568559526445995
0.018469613015056795
-0.017177095835478533
0.0037743572535961683
-0.02716029744326483
-0.06401558645162898
-0.059437537788425726
-0.004938479814480359
-0.018551212955813343
-0.028573279298766893
0.012478761267028475
-0.012870554289839672
-0.057940748156888225
-0.004732765210320616
-0.004428886897037451
-0.044442393690342696
-0.010330485021440496
-0.0003169163925277485
0.01639951570914087
-0.03909177613736978
-0.003482088835242603
-0.04704099420388901
-0.001420872535104946
0.038135654580894365
0.041570344330811006
0.01479478048922705
-0.12359635826855993
-0.033521179851877116
-0.03064240109970408
0.03036581086276782
-0.08456198740596516
-0.08518601195838088
-0.005950378508986737
0.10003829187886132
-0.03489173265758406
-0.029202579732705448
0.01873505823736849
-0.04845065889970701
0.02398807176128909
-0.0598732188693339
-0.051189507663240846
0.017899229056195644
-0.03197201099575122
0.00419398551945911
-0.05479820359148836
-0.025799936429638598
-0.040583786788501795
-0.05159072999012271
0.043926157539233276
0.03341721489228908
0.0042417095000451925
0.039983561957430025
-0.0036428125627297604
0.010895884268584871
-0.04147650529857444
-0.0374647356901383
-0.012011910441663498
-0.08316730894744019
0.02501570916836407
0.0012832162959319478
-0.025691817183717793
0.042188722010151426
-0.013510432241588875
0.046324578376953564
0.016699057749050367
0.010675221403795968
-0.08828988278459851
0.038492481585966624
-0.004503767981042575
0.0002861701096350504
-0.029322249381092836
0.06651308614675898
-0.0362623543330547
0.1024371704581216
0.06441812105986323
0.04826424071785972
0.02819445534109173
0.0004755065243129896
0.01532288737873604
0.015921325887761486
0.07628086207380587
-0.0040453990003841795
0.005004577314173246
0.07104856326081396
-0.05923888420442317
0.07068548856239612
0.010224824198440032
0.01277125367468776
-0.08348733632766699
-0.06891021488527
-0.06254430066721339
-0.0849513896838928
0.10917465687689383
0.031830943607084314
-0.020491483421991422
0.032813120696085094
0.04856002677117769
0.010009349644269621
0.036781139388709944
0.02430264794718631
0.07061131008569017
-0.040374559062247135
-0.040972581696581495
0.07796171614570023
-0.06264106412948918
0.022238611586932678
0.004312364129275156
-0.05561355040985993
0.0324639502774677
-0.04282350472800913
-0.052144940903084996
0.030164370538484166
0.0872462405782185
-0.04553966042639352
0.031222201118028273
0.09591448276134312
0.08161071819398737
-0.023626853366333918
-0.012808860884829657
0.08350926706365536
0.023707861647400102
0.0038234505417836374
0.005833912230840392
-0.09184309844609492
-0.027995110092984856
-0.06879623054983261
0.027527221417144834
-0.04797142971483273
0.0015820519621910101
-0.09673306638654326
0.020256302515119114
-0.01768621084725049
0.029885955241501058
-0.026565230748301
0.04196017585137505
0.04171836372133592
-0.04468226633303296
0.10371902047604198
0.03871246106508909
0.00152195562006964
-0.04831983131877665
0.15894184783458937
0.48605586436947656
0.9903307180016317
0.5006647095866483
0.16841602172737483
-0.003649859932218393
0.050838764496976434
0.07325109199340472
0.0010071261327405548
0.004797509226198903
-0.08662478288785905
-0.0037470628979688544
-0.0675476293017579
0.04063031327900079
0.019879604535477647
0.027265866172440867
-0.038699862779852386
0.026997583599919703
0.08711333482729547
-0.05228946184446144
-0.09041583310965956
-0.017479919349284206
0.021619678329725826
0.03995889220627132
-0.03071232293941406
0.05467274985469518
-0.02457035504275757
0.055923878603530375
-0.019652136048306772
0.029683346608225098
-0.00033068366000392284
0.013573578291756039
-0.0003386327540425109
0.02745788292871104
-0.037795283747440754
-0.08995023718517908
-0.05868304011132023
0.08218189763794936
-0.010150093912535074
0.02762939897659515
0.07034723486449977
-0.005962334944913716
-0.021239306680634784
-0.010723988713672439
-0.039033483201331966
-0.06315296996217266
-0.040007141976431265
-0.03161606255137708
0.0006969209454365786
0.019033004022442745
-0.06481232303761073
-0.03903233436853744
0.020734514484193157
0.042383666652448256
0.03415769934331389
0.04610850803635066
-0.08303696088036104
0.04322081566032439
-0.014728140598591783
0.018134478906832546
0.053898283639068734
0.000783656302902412
-0.032833372474316114
0.0017726603460163583
0.046914534911736264
-0.006609723083372124
0.053544475758106225
-0.03374743426034781
0.018476700904406472
0.07022904070686774
0.0031540864156253904
-0.08721104377195221
-0.007313154663836548
0.05668109993421502
-0.022181869778834497
0.03000557142567067
0.005936443488313379
-0.009661285404632807
-0.06264011424849932
-0.03061144687534927
-0.012844365633971483
-0.009306998089715987
-0.02168985246858773
-0.0628306491232781
-0.0019419162228163944
0.023768286086054618
-0.06022198455687901
-0.0881629299858806
-0.011702287979153013
-0.07766946295651257
0.08648774466101601
0.002253757204716206
0.01601097408599927
-0.01105385542588161
0.025669669817044674
0.08847257441929454
-0.0386491362653109
0.06528036243696671
0.005180434662448642
0.044421944779938785
-0.007315410484830787
0.04123320552643024
-0.02043596770452318
-0.03361995927493216
0.09104662479210732
-0.1339718194161185
-0.0004827530748673894
0.0508325548013724
-0.037126166866507763
0.05394161820330086
-0.0015125648684565093
-0.07995062308887307
0.024074153305409657
0.030052807913555735
-0.040157361736852165
-0.06153246696720943
-0.02022423162020421
0.0009336373836843777
0.0790057701095197
0.03928124213816344
-0.037552138758211395
0.040659527289656744
0.057986216319353405
0.016402505132596765
-0.026462311450938254
-0.042415362755927694
-0.0572323703860398
0.009001285009288602
0.028999416483771013
0.011446746313191977
0.036283240870963615
0.05207987182668773
0.006103187209641703
-0.017558500264062707
0.010312772019172944
0.042144412841295935
0.06805561906294313
-0.020728497706106352
-0.029354148611988918
-0.06387425820674181
0.014028546179600766
0.009455530082170923
0.05478394402264023
-0.06165912634218989
0.007199100832007508
0.03804524549915713
-0.12505031748734768
0.0034140222742204728
-0.013760680680188684
0.05218178084836892
-0.08839976572023044
0.07869598506517661
0.06489824139983456
-0.04037774759474683
0.013078471173940008
-0.02766088400409397
0.020903520546938916
0.025047876916613726
0.08709458323328886
0.023678798349513367
-0.11092241765751996
-0.01568011288578222
0.0247363126749316
-0.12474944819171814
-0.02807199765128389
-0.026251150655482183
0.01888569265772775
0.0742941018129048
-0.04763872120984795
-0.041930983242755016
0.013316074506923915
0.03287341968039964
0.024689946076812446
-0.07324133529725423
0.1463877665931664
-0.010734204291385153
-0.11699869279355823
0.02498765237991094
-0.05485376986096398
-0.012601815275080717
0.03050490999992065
-0.036500516726920805
0.057089995905586555
-0.06055365658970302
-0.098834815836351
0.031777387555829886
0.0241368926104733
0.038035764591184795
0.05226718753334021
0.06889681582158011
0.012658558453592953
-0.015363101333378546
0.00668450470685142
-0.007939013407360423
-0.03292088926239738
0.02308229071234901
0.0020923678752634597
0.054114528272065025
0.032771195867584445
-0.04751575509512752
-0.06443066258668183
0.0032949699646158573
0.032849548161461004
0.025078941990743227
0.01795957758962232
0.06514340404926727
-0.0837578447542281
0.04709559138035349
0.007264043636666029
0.06960958392807476
0.544027789441712
1.0493561869857202
0.5044435048847564
0.11237095998918611
-0.07307204399753862
-0.08067310952807966
-0.01952668136048597
-0.026214105134314616
0.013126655022552442
-0.012560320002139006
0.045913656133940196
0.02896707535439852
0.03111571344414534
-0.011003727133820392
0.049227828562347024
0.018953652807405682
-0.09120859009567828
-0.09882513014348343
-0.007325253286563168
0.05898560765044985
-0.07002448545317208
-0.010230234102443956
-0.024161633153451344
0.028280314783936774
-0.04718867119426651
0.0071040121160743
-0.040598854851889195
-0.05250626546165493
0.14289337341190697
-0.034660477480556284
-0.015964059575827663
-0.04249449882030905
-0.05854169732633119
0.04003307922256738
0.04655930291876906
0.018025407901014395
-0.05816355891244834
-0.021183173197983247
-0.10466703647261277
0.03525147012263351
0.010810977786476763
0.04075142691464162
-0.010271610052259392
0.018318651320797293
0.06587530055113237
-0.03591116162168747
-0.011049477701739537
0.06537919807626867
-0.024470948508099902
-0.059671600984493624
-0.06640518551870876
0.04410844657123366
-0.013546083210946963
-0.02140343051842179
0.05070921872540778
-0.025418985801487798
0.039869449172913934
0.013220589636627056
-0.002506087389093317
0.09692065414355355
0.018164668816014
0.03501290128288308
0.02947189202790046
0.12003957215060337
-0.033098929238376186
0.03272630858509294
0.02417853394521284
-0.02851853348198199
-0.009282009588716764
0.00516179001479827
0.10243518878139342
0.0070942333997181806
0.029536883049341562
0.024861259221730256
0.08412986101084996
-0.01290893557919863
-0.053979419416647814
0.042986153169700336
-0.002922467418210231
0.09024640857534702
0.061711639415852663
-0.02156537830908042
-0.0300271647919695
0.05239069683772123
0.09829607431504664
-0.10841527314677797
-0.02048906774699781
0.03694170079986761
0.02627346853828958
-0.012291823349175682
0.05265163850097065
0.03808783875334511
0.005687231963736751
-0.009581170268171636
0.01369483255678549
0.08894157404091295
-0.016998731218323206
0.024636903144122507
-0.0517459182512844
-0.049322958917136034
0.07262572054270543
0.0009972958324857967
-0.09646782658972851
-0.00713470085792273
0.03432135283321432
0.08845015845337642
0.0802189275155677
-0.03886812527194416
0.03945129212834767
-0.031824560068611916
0.015084232991414776
-0.07009945506996064
-0.01594238336345495
0.08453701766596966
0.007790468545046111
0.02738150294584137
0.024049292764634137
0.03929990053800603
-0.03804163406510562
-0.007148668009048966
-0.03204364560311496
0.026244166001609944
0.07775055557483941
0.010922187106249323
0.041353722387566065
-0.029515276909469534
-0.0287427225470911
-0.021455138694277145
0.004485684045364869
0.12770661044352077
-0.01434099046328671
0.010875395566467584
0.015766127017844855
-0.04800700173353447
-0.009304601668667256
0.023866111837655777
0.006034530231603044
-0.016313376236474286
-0.06654072869352712
0.021652709872871864
0.04307831009560749
-0.03053443228755978
0.04000406079432592
-0.00883994882006668
-0.055295909540592075
0.02785977282520823
0.04943754608296727
-0.06149716751111637
0.11403389298295592
-0.015237599392413717
-0.039017000350107044
-0.019935566402294283
0.05155451780574354
-0.037000181226773794
0.04669759785207774
0.002066165038961246
0.05613979716044568
0.0025424908283411666
-0.07650695503095128
-0.07345757885609538
0.07549430062965712
-0.06391368976679575
0.029775568987074803
0.02174323748346857
-0.023326868246813626
-0.019281078836031054
-0.014389062304793344
-0.06343007822717864
0.05413566626673816
-0.00023639139721327916
0.03687560737462441
0.042756446391833125
0.042439895138230266
-0.055425582219452166
-0.007292285759658481
0.008800879260869948
-0.041029462276514744
-0.01605891148877311
-0.0205141815761858
0.02070985418906549
-0.00406818583047263
0.014324741883012663
-0.016429643458074163
-0.01864663935902902
-0.010559207772601347
0.0020117436119039705
0.049909699922434436
-6.293536807248932e-05
0.10079043861677528
-0.07444378833925654
-0.07219895910550567
-0.04959067126154066
0.039235015231212686
0.002277825925870352
0.022410727559945696
-0.06561189071063728
0.08498487360399487
-0.036819449084040154
0.09174923600001586
0.5074231051695838
1.0119854139763198
0.5790689688551663
0.10448093659718638
-0.035548985419454525
-0.018234598953769863
-0.024697448685549905
-0.05745445628347145
-0.08096555790473071
-0.017568205233570732
0.05935656079103189
0.033032840020359285
0.030991382201533548
0.050635609093062695
0.01771402100248068
-0.038721505064811576
-0.04429456140039728
-0.012149411105730847
-0.0005997442025137725
-0.031903520715493267
0.00698072647828047
0.03586886151683028
0.048476902150653575
-0.018592391557482373
0.04962088022165089
0.0860894622194012
0.11111547394181608
-0.08643724511757431
0.08091497443567702
0.04579099938646608
0.06348500966297303
0.13149490703483094
0.07508134599213913
-0.007308290932534063
-0.03479593432949414
0.018030628592296476
0.07444928853633281
0.032265966704747524
-0.03539553321936875
0.018168185918358233
-0.05870468709938547
-0.02375406675882888
-0.00887991193611475
-0.03738114825288605
0.03924469754656977
-0.002441953849485414
-0.022461567639980553
-0.016664197226358535
-0.035198129403844224
0.08832474825541294
0.10536933568895138
0.044442892277096885
-0.09972118278880662
0.08974708302979097
-0.06851501374444079
-0.013825797106696873
0.06949569992446278
-0.013192310200426313
-0.02654508936240021
0.02458026673389017
-0.021104949569935746
0.021336559373035136
0.06392294006380007
0.015052625126807096
-0.06456708995048692
0.04143901923373005
-0.04559843703521972
0.03683467309654548
0.0045686065360043574
-0.06517525163358003
-0.009159007003618878
0.08452297599641416
0.04249349998763871
0.06799338707148524
-0.06230153738911091
0.04458191902461704
0.00044268101471127864
-0.06808816495351927
0.05366621798268184
-0.08681023932887441
0.005704201832566685
-0.01736839848531647
-0.01661569581164669
0.022861804129812535
-0.029062192937994377
-0.06928614315318192
0.05137590496777044
0.03787951132598418
0.020273401892025773
-0.03793551942931674
-0.03017872050341704
0.03072701099012469
0.005794360661812336
0.011672911006188127
-0.0166409917951186
0.02455799221025549
0.044185445054417044
0.08961751778368009
0.049610124179985324
-0.036880671345159946
0.007877036415337572
0.035289731363555406
-0.01731401228943801
0.02429119151996157
0.0013390003267003464
0.005284649909340203
0.04744761767956217
0.12142613434557921
-0.027052228133003783
-0.0431088973719762
-0.02372417809984477
-0.06432743584915109
-0.0625198124057287
0.02879383100000071
0.047874420590913846
0.012599857865632558
0.007328602598818415
0.08194250050003445
0.053587024185352355
-0.014187748146311172
-0.057059868566772046
0.01753059500366707
-0.002190747917636546
0.04115220115715048
-0.022747254960974357
-0.0947683545033201
-0.02613543870023175
-0.024603779752651
0.014031370222213763
-0.027678480833801672
0.0013941622820375053
-0.018341522200643102
0.023004303455335107
0.01118883463421226
-0.05371322166878374
-0.047449676133307084
0.006943510383447865
-0.030626804213426576
0.06184860155703306
-0.10098627357115603
0.036860670497434016
-0.047403999350099674
0.03814133665943974
-0.05943109072911434
0.007960640731509863
-0.017896818886691975
0.008472386887721289
-0.00809927098661368
-0.03511644251597367
0.04886121783286794
-0.01937702435502927
0.09248693439513891
0.06249647599697955
0.020326031233879684
-0.02092915406219019
-0.11517930260983629
0.15012528506050074
-0.016515452936089935
-0.00304595008764801
0.026964985944160743
-0.029748234272187674
0.05654743417903777
-0.053403454518507414
-0.06254285325100832
-0.052744416340891866
-0.1087358923989229
0.06679412741095471
-0.044625717027997294
-0.015538650441807187
0.05560606594703074
-0.011628050688555193
-0.0003724176251510129
0.03206040815140867
-0.05095929300761401
0.021858178045402785
-0.02799245665869405
-0.05212174601102337
-0.048757780392582335
0.02680546865459539
-0.002543202085863309
-0.052573679535828505
0.035042528219511655
0.07162596711606446
-0.006174232475368785
-0.041428449470931286
0.010789707362092955
0.08795281498500707
-0.00498622451450571
-0.02537051108038428
0.008044360169810512
-0.01334902816046375
0.006815351357968492
0.047720046664941805
-0.005532941035645332
-0.02474821352433336
-0.05216460884247068
-0.029674861111203134
0.11839200449960852
0.02673590153277555
0.018026329073668367
0.00810219850967341
-0.05321779919393228
0.0187481923148109
-0.04840868477566205
-0.030432708224919204
-0.0332116087722114
0.014087763012271118
-0.04450032847354196
-0.06793064432017283
-0.039897907460908426
-0.010571704791949806
-0.009086558483449287
0.06130867060871442
0.028538338306063494
0.05423110897283087
0.02456035626253173
0.07811988546963639
0.11299984516111627
-0.08447352071959563
-0.004058670051564511
0.20191085324621394
0.5676929107920538
1.0287333984607125
0.45666153950808436
0.12359827149102733
0.0014192361037110367
0.04393255202048188
-0.013752696818748559
0.07563927000199988
-0.022360126376552044
0.1168155225321252
-0.0030487533308479224
0.021004495584123185
-0.015978407546297806
-0.0035048581389971935
0.04779488269162279
0.06932169171769255
0.0831764729856252
-0.0441606488409655
-0.024980373035409363
0.0798829712714892
0.0526217131305822
-0.03384158238935931
-0.0007956224721044054
-0.02696505996923239
-0.04654824827865668
-0.06044812794368185
0.022614916495355786
0.044049526234420246
-0.028352000980960464
-0.015325254104512513
0.01975644991687669
-0.037352620949316115
0.05982301703901591
-0.08425837171891958
-0.02648879169600384
0.04635900458805322
0.029993981995148612
-0.01091467253726805
-0.05571238247164848
0.06236651894086137
0.024733186093920067
0.01120454652563468
-0.031485749399087576
0.06788419642174319
-0.023873043654049426
0.08324941156852783
0.039493369520978594
0.040339391924510186
-0.03266263240301334
0.03072704962676679
-0.01307727287537949
-0.06122651278092048
0.0999183227007109
-0.05577641825540636
-0.07513320910324382
-0.003505134312407995
-0.011655712036940467
-0.04787259338877056
0.030389651915328976
0.0339020398401203
0.04991409140028598
-0.02215694159655171
0.04236098926839377
0.15192156501775275
0.07524655842596129
-0.009491633039254932
0.0952431091800005
0.00960560240774857
0.10308471462372773
0.031980317664663686
-0.051893606642392655
-0.07778451881463126
0.07015672615057904
-0.013607316872428927
-0.07661171095423683
-0.10036469545580307
0.06687668851534183
0.019800219691762298
-0.02955334943416146
-0.002038803771107535
0.016061722171316427
-0.0671545308583653
-0.006739775256069481
-0.06755462003524486
-0.06295227662757151
-0.07318360361949093
-0.05453309458446758
0.008415238054304643
-0.07801648481316986
-0.04185157505925819
0.07728995027168736
0.05612868482543181
-0.03754232999879914
-0.018054917661293326
0.04956626996367952
-0.030085825325216344
0.04206352711590618
-0.025176424512211255
-0.03473321935508885
-0.03332230890766144
0.056663071714613635
-0.007867782466990476
-0.03741138875938085
0.0181752333441344
0.0831843110992235
-0.0022132978390398237
0.006537935174194837
0.007306777198830868
-0.004628513908485233
-0.01216433864784381
-0.08426351636403057
-0.01675096997839813
-0.005749722188568028
0.04887932985689947
-0.09028198916650337
-0.04588940273378205
-0.02075254479933031
-0.03774320656843709
-0.010689458718343703
0.06901439465887253
0.08746236489739705
0.04544235113499796
-0.05643178224781044
0.050565917876665936
-0.01580682331444453
-0.021268347843113565
-0.10215187299498632
0.06521875335201766
-0.04110188638068396
-0.04060523595299245
0.05771966886290221
-0.012013728209397946
0.007011721860181114
-0.017525199537509167
-0.00563338837417781
-0.04225594781724362
-0.024017650598292924
0.012376981309920017
-0.033070576811298824
0.06690764753940052
0.06449516526914349
-0.017390580848629707
0.033779755340760595
-0.0706840792433814
-0.09511554152749958
-0.033881560365556763
-0.0879381729382166
-0.0029436035139591417
0.09310359694312234
-0.05525024203282569
-0.019445413061945346
0.03802678855180626
0.040901470330105605
-0.003653410032006607
0.05420551097248954
-0.05177162598575481
-0.0501729347293815
-0.11289961081754879
0.022635648848344764
-0.07505053984618411
0.021147611747658678
-0.04321174261315949
0.012614130978379198
-0.08280941211942233
0.04120463536243313
-0.001419205486731717
0.03289645637536926
-0.10622395790150019
0.005067639590490474
-0.13707797354686324
-0.0543156801786078
-0.027940562926351865
0.031823776078713
0.029905371195754378
-0.08136905409104944
0.03135065396307542
0.005811878134346887
0.018182490519667128
-0.07712072191770608
-0.013237021380876285
-0.009201061776232738
-0.0586311416488746
-0.08398867395573188
-0.07491143909490158
-0.022598085918054803
-0.000750358586731263
-0.023642854561399973
-0.04801071528965307
0.061306086633226745
0.06005980090568569
-0.014204954969432188
-0.01257143212844692
0.018072817029029613
0.01730629474534947
0.06034177860258895
0.02176069156915851
0.03921752967217491
-0.09772579424692625
0.04832658134344096
-0.03305822388302313
0.01255528384268492
0.00923965485255966
-0.0327203503439116
0.012398880446826056
-0.013417575658126632
-0.04583795232935872
0.047503284706306804
0.5439177852576803
0.9021594095864248
0.41269021085827745
0.12702212566496765
0.04693586220773244
-0.010475173056222337
0.062221662392523
-0.05349868163844643
-0.017435582257193532
0.02733813579713469
-0.0710153733255102
0.03131336590037628
-0.017136987651836966
-0.015184537790201902
0.02383546288183297
0.030461536051820844
0.005672372240242001
-0.04733818987627192
0.02273055913650207
-0.046638056877102076
0.04327300770499241
0.10382465481413056
0.001396646481513016
0.055211344586793665
-0.0519852098605096
-0.02182116623746869
0.09667582333253702
0.0010387511212787003
0.045189033151442404
-0.040786079696582656
0.03769902991294002
0.0034514435955027146
-0.10905764163620191
0.045562120291616055
-0.0721320942976938
-0.06185111264893414
-0.04409952893684158
0.017994844820620286
-0.05299966082495236
-0.04069340999061614
-0.056967081222138775
-0.004875375088006094
-0.141328423790298
-0.02920558976137147
0.009058288713699646
-0.02808187245494866
-0.04791892980289441
-0.0003752494282234363
-0.031506878984757035
-0.02562325287170522
0.005034167855899002
0.03143106187944244
-0.04612038806807375
-0.024724534525622552
0.053235137479696694
-0.04764016765238199
-0.012761170896230054
0.11579216696219596
-0.10239709265768847
-0.022356452421381928
-0.043161782345489876
0.00041110730536019136
0.0005100825359996067
0.03855363005682663
0.020944884557556318
0.033006925958633686
0.0009462560209861075
0.01023712156874889
0.015188357986387178
0.023295057560601608
-0.03076533009463809
-0.019665529559957668
0.018453964010388745
0.000574090154446112
-0.05542808530115805
-0.05958508906797606
-0.00708863617636334
0.04726072990536747
0.014237628524932098
-0.04265382767141382
0.019267247816769945
0.00596853695013665
-0.055016174823666955
0.05765937998823928
-0.03210378304047988
-0.00662608945972033
-0.0038706356842228822
-0.0223730409775285
-0.0724420542301517
-0.07024787867245202
0.06449437139813785
-0.02241575115627059
-0.0578618295299711
0.0034099522301370695
0.0015825332646444209
0.017485573219300974
0.02086876096759652
0.09941730260991379
-0.04823432001507347
-0.01023085715294817
-0.04583608914291969
-0.04783722863354231
-0.006071405479406898
-0.06911613216488215
0.005704957290796148
0.028283540340816656
-0.011774048563835581
-0.07428251348373882
-0.08618820123102455
-0.07457342267017752
0.014328694308542054
0.0939123071577005
0.06325442527735803
-0.10291050193928107
0.009068824666191962
0.05360272937402586
0.04022959818187111
0.04823787962200787
0.011331211513298996
0.004834511221398634
-0.051865250444952875
0.02767479388603383
-0.03340969302585602
0.04665645354891464
-0.050002949992596225
0.0789033945364492
0.022267255039614603
-0.023732598412221174
0.0726437422404586
0.0135014639551492
0.05068651526113552
-0.07135200173476429
0.013938874226810583
0.038877292106324984
-0.008016775717091048
0.021998175984297756
0.07124326094233878
-0.02246022557221658
-0.0382872686241976
-0.01191271463463714
-0.005728753424268072
0.018232546240833387
0.016883489484293517
-0.08415843975231836
0.04191415921288047
0.083526465524388
-0.018845219437313303
-0.021027219735473526
-0.05168792000236391
-0.022849093351292815
-0.06429688930905773
-0.0491136182780272
0.05806804225386848
0.05186168803793521
0.04479028213943034
0.015408966479559813
-0.026316717143544485
0.0587872280783798
-0.018374767477263416
0.022269917340488898
0.01580631257997819
-0.028852540574874987
0.024062211135264064
0.13270072553787088
-0.007710726047645765
0.01468250502781359
-0.02439816611463137
-0.04751713252865473
-0.020685989634786264
-0.02784574691016578
0.052051377853826866
0.01214894598170771
-0.1515641223058011
0.008536962221294776
0.013756895069880364
-0.062237608055594175
-0.05028538024238476
0.06136757229599091
0.004373353421707493
0.04822907118090514
0.05741826310177145
0.02694360429485921
0.049490349033216585
0.05636471151856914
-0.008854590935080084
-0.011075205004875452
-0.11839398584594325
0.06711097800048882
-0.04276937088289176
0.009146425888703083
0.5405936953924967
0.9944192719071403
0.5302317566564155
-0.053917597629295044
0.04071038173484399
0.05988559994702322
0.023073499301366363
0.07650823031752836
-0.03394824740504672
-0.03297486812970423
-0.008851343553512615
-0.047673448088750264
0.011768971037007966
0.04614458864851864
0.022037317118336546
0.09194766708480248
-0.030887803701834804
-0.03317307520227529
0.0024311460250638203
0.11746846451900345
-0.09129686406406666
-0.062334881247177856
-0.04298836813910775
-0.05561771080829641
-0.01252398253572169
-0.09442234791460859
-0.010232879466554691
-0.0517515864687007
0.001063607320495146
0.060827937227302675
-0.02266479091363428
-0.02991476228877317
-0.02795470658849679
0.004908592612714553
0.04029015590023418
0.007264249013294002
0.04969701950582027
-0.060025840766220875
0.12003180351681741
0.020309997898804315
-0.002997104621453459
-0.06607203891199324
-0.052921399769074576
-0.07752342133267413
-0.04268312576544663
-0.11200311846838938
0.10037277782396324
0.01758599260684526
0.018308671961810324
0.008661822938030533
0.01319665115956038
-0.008279574405992854
0.04937512745278149
-0.028655766968036907
-0.059455872815443615
-0.001287328178044045
-0.01974471787854456
0.04676802850105993
-0.04094135814038974
0.004073153887096108
0.08557560921530243
-0.014903714161362517
-0.01734503626860094
0.04786396761538328
0.022391227063903316
0.027014131075542226
0.039627841346264264
-0.05542815538843478
0.080970036525126
0.018307536843406722
-0.01908148863138388
0.007675752153146665
-0.04395921542315155
-0.06895354474484068
0.07524608855307818
0.021231443759019267
0.02099174881243117
0.052679444790128975
-0.013464830869724324
0.020994499536719502
-0.04536440568797547
-0.06703658660908315
-0.07690693399914408
0.06757467793622746
-0.019641343738420008
0.05221977600318273
0.02575581823238673
0.04036760107129783
0.028105561488755034
0.08461557437759012
-0.0029364623460863405
0.04210454018027134
-0.06101918185853861
0.08711965850603166
0.04284537236034583
-0.016364182968151075
0.026206876282379322
-0.06426405398771474
0.02921700792819944
0.07861063902685933
0.014612689230483837
0.08659118435295499
0.08280666779787427
-0.03315647801138165
0.01092256516325865
-0.0127259944982955
0.03207403795109846
-0.035719556670192255
0.0504059788064348
0.061390894473959824
-0.018757286537571086
-0.033009768158604305
0.04240874785630154
-0.019620016561982076
-0.036528220008788054
-0.02725168229199056
-0.08673851842432337
0.0016271027747024446
0.024750876230786395
0.033065076217490295
-0.031644110987223466
0.033636155165242494
-0.0021000601652102612
-0.04260422554054747
-0.03598160239270939
-0.09664165604282188
0.05414974719142351
0.03743358329251253
0.013228740970250053
-0.005886769090062459
0.022774946099913793
0.02551972675192521
0.09325123278360697
0.0420783884899078
0.06167673209235134
-0.02892761565659087
-0.034086411087287265
0.07902941745375741
-0.038681583006107065
0.06701743395511868
-0.011980175709274943
-0.03702911399384979
-0.0391202659468433
0.06194199398036825
-0.020953177897602746
-0.006564593156926972
-0.019776494956668934
0.004991849786907195
0.05781373928452899
0.03067394689373213
-0.05579256547326877
0.08418133114339632
-0.030436258448853476
0.003897160376744691
-0.035488630687162286
-0.015074771943580065
0.0029596005873596385
-0.09080173685769725
0.03498461756594394
0.026717808146904876
-0.06376142753735196
0.0035199991642213876
-0.012482880248081106
-0.004089593805409463
0.06251605677489402
-0.009774777749162794
0.012914354936780535
-0.02843875175464578
0.027790444054480574
-0.04093775193721655
0.029346585315141744
0.05447226459025095
-0.053334178564037604
0.06073177173690525
-0.022558856934748753
-0.15556695987735117
0.03882378630214914
-0.05280431260938723
0.03302467052127373
0.008322646766189355
0.036610671076554406
0.042332594690382336
-0.011011350798613708
-0.07140534443116074
0.003303283272531618
0.02320535829745243
-0.06667111284772208
0.016871351337434417
0.008921606693243078
0.01919557401783964
0.08004751860693833
0.029957281345833073
0.011759217249867851
0.0052477926082792935
0.04865749421034762
-0.005895294129184516
-0.037212321615843834
0.0034450139240428364
0.09609265133758861
-0.09963761703273355
-0.015281017226835378
0.043551847743720305
-0.014155961974101683
0.026547430012718
0.044224267286414626
0.013770041895935753
0.04636041571379959
0.09361388677410742
0.03682215508899156
0.02458308270883425
0.03980772772393766
0.030281578386747332
0.6191765142130125
0.9413777745706373
0.5138852087915241
0.1287334861442056
0.0016977933891970634
-0.018394043559453645
0.017269793602703667
0.0013003563864250713
0.03430022704246926
-0.044879610794980214
-0.04047257623232983
-0.027875952853573107
-0.02723446091217549
-0.012976402698547565
-0.04173140038365656
-0.0012258936753363637
-0.04752907562117671
-0.11845910223939732
-0.1142833950080856
-0.06378434584040425
-0.03653719276467264
0.04142083728070123
-0.029187270196198895
0.04203870945238525
0.03311425593866881
-0.006460025430206866
0.060839406474021876
-0.06397681274118379
-0.006595409205611339
-0.08253130421742197
0.00602447369858702
0.014361450069429843
0.006624131433318362
-0.08141279002688355
-0.016530865406698764
-0.018863866142585627
0.043191604252977446
-0.06638571162465252
-0.025008479307509174
-0.025130177989692117
0.018604223021685597
-0.0029532945965899146
0.060917841062082013
-0.04595509573729926
0.00012702071488060096
-0.05168895792367059
-0.00030408494477582554
0.012609401059882617
-0.07257692114275661
-0.01636520861166345
0.05310577669821938
-0.045777722154261805
-0.055608455097082024
-0.05985539029386799
-0.06130522537166916
-0.034296143726225935
-0.05811419637499052
-0.054608552671442816
-0.10228787406503792
-0.016793351345537565
0.10092602552839268
-0.04987444350928752
0.07719387718096087
0.06586892980424404
0.0068093832608063926
0.01826021474136689
-0.006112840842870283
0.01905649579448408
0.04297563190825152
-0.031434170651945224
-0.02997967142430725
0.007292232959251921
-0.041216270302205156
0.05228192366653454
-0.05603100272539279
0.023433489937764816
0.0057316257292757055
-0.014587108239854818
-0.043441179401615945
0.005985690812180443
0.028956631012513785
0.01858062879627491
0.04972440979439405
-0.03102670049857243
-0.02847793076282012
0.010212857778468244
-0.05666891425810808
0.029593116878171278
0.0024042374693650013
-0.07227243857677479
-0.07995092444209369
0.00847515816724988
0.05511814591383121
-0.0008907602588867132
-0.09116206005078564
0.058634168761144516
0.11753963629275775
-0.06247708185908764
0.022027320372092207
-0.026812130240331085
-0.08414163627968338
-0.00799745761118168
0.003843759371568785
-0.03997165915464797
0.021779291956836318
-0.02095001097697273
0.011368274375711794
-0.02496551328967146
0.07282583838897864
0.004423084603805058
-0.014578192084311398
0.10087031492064263
0.025479335801976418
0.00849992739583067
0.010831697119310115
0.08962596763374979
0.09430789908853268
-0.01277024879383597
0.04590616696054586
-0.04404772527129576
0.0008980710855128687
0.015433306906715946
-0.05998161450398342
-0.02142499834635633
0.022081926254415848
0.06826659363434776
-0.06734643730702645
0.06244142845146764
0.01666052913261669
-0.05552446276496559
0.04785310942171593
-0.06314172671161673
0.08181331492011011
-0.040446598954288114
0.019872851411874306
-0.02611145094308663
0.07453593630481044
0.013989117042293229
-0.07993621562573978
0.07385454639352787
-0.06326381179817342
0.05233626859724042
-0.027564095553466384
0.06038244740203741
-0.038663514231994205
-0.02261973951421461
0.09748490191015408
-0.005991259279053654
0.07087238274226101
-0.026441025711009515
-0.01625072072169565
0.05108784967460437
-0.010163725993552572
0.027840104161466622
0.010025418311233044
-0.04695034531242932
-0.06300077114367579
-0.033688909255920836
-0.07050465095062435
0.010364268097894674
0.04662096957081849
0.058011714698644745
-0.06761180717543429
0.04723951033201678
-0.05794466726148115
0.09065108648204372
-0.04093888161937225
0.06989914263287282
0.05633013592359307
0.03579138708662335
0.032393326346629746
-0.041538448172404485
0.02132173262776253
-0.02895605163122606
0.020370730930834344
0.07908350111763607
0.02463539097936414
0.005784242186090329
-0.030125408368145857
0.04370595321752998
-0.0756256970478162
0.01776753381120252
-0.0023995173306858163
0.037418446536934755
-0.09021991876213814
0.029454290592020316
0.03752851956351134
-0.060894782889802525
-0.06454381603970809
-0.06515854145654702
0.043251608307231834
0.0060833624694025795
-0.012699721114976557
-0.007021639544159699
-0.05431335225349983
0.04481005923911052
-0.058120974345625256
0.0060878278349334545
-0.013153493354565116
-0.06494468687993879
0.03574432819782122
-0.005645083825338234
0.0021436270342609872
-0.006427803254162536
-0.01837822289952058
0.046475080088968834
-0.016128455677130567
0.013685226365802605
-0.014877442233391417
-0.060812977766965176
-0.08989493492273665
-0.09192058634744438
0.10568532222791756
0.10798911884610052
-0.024406608847576918
0.025902743983604173
-0.034815964703903364
0.05340435419651183
-0.0068056085217924715
0.04331937888844764
-0.01149173115853189
-0.11361101127437814
0.178975756284244
0.5649583338852958
0.9739361150968583
0.49844576508399285
0.06090835681305093
0.0030356682322862944
-0.010089520586423022
-0.01628397207269523
0.0785951797696199
0.031016624538679663
-0.07247173374395974
-0.0011351124747079097
0.008269907065567543
-0.05206224511250145
0.07071992027280996
-0.07428628448825368
-0.03426550985957614
0.06510147795316763
-0.038757341964461185
0.07987142516134597
0.02551165606833765
-0.03448227329410732
0.01624775322008154
0.00890556785814557
-0.03709701277708441
-0.08816716204235511
-0.04817547299573235
-0.0286465710375466
0.024216162036743788
0.07952728486956874
0.08002018422653084
0.016175571693585293
7.744669323549738e-05
0.01508127682304892
-0.03644890219426768
0.008575636580236362
-0.03798211259647846
-0.022967025540578074
-0.02219254503894126
0.040002948441321684
0.06929556044707037
-0.01525341797658783
0.043157033183848614
-0.054691132381714004
-0.04227528517002246
0.037825035546360464
-0.002643517736291387
-0.019815716952117292
-0.08952192587932926
-0.09770862854814136
0.05955874996192211
0.04830853080922198
-0.01339996683571059
-0.05712345370385499
-0.03429330129254674
0.04486175108037247
-0.04770630018661723
0.06883156336813324
-0.07243571988450458
-0.04984183879253343
0.03114954028673518
0.03270576127583801
-0.05799551248327492
-0.004585583760844436
0.06437866253616563
-0.05253477249642235
-0.037464379761553555
0.005123126159830914
0.05529433793218307
0.01398242092002437
0.012985088511915667
0.03595596628922167
0.006799221724910776
-0.0011781848801914873
0.12125178757655715
0.048787054504569924
0.028198759582434143
-0.07664930767437984
-0.003182521517280144
0.006924426168005007
-0.038199014247643666
0.03963798381336171
-0.013945604348231494
0.050242771018771185
0.029488959218011198
-0.017601365760580173
-0.05069137501221456
0.10675831678200005
-0.0028562996409366923
0.01302975626859785
-0.0026469734431282797
-0.005668393563527625
0.055184342346985917
-0.01621782594566554
-0.027052898125429915
0.014308020650757206
0.017292415764464802
-0.08092719581872056
-0.065470174140858
0.01336649730090296
0.10000265074738304
-0.057811042594688736
-0.002228490411290868
-0.012496281415714046
0.00019953531078450868
-0.02152838576419051
0.04859649901560121
0.08263391901012704
-0.022323657372484717
-0.02495357895654214
0.027455262196987823
0.06993389431509678
0.033924766601274824
-0.004328608892058697
0.07147516288534332
-0.027714496231948063
0.04752895521057879
0.0707597596906736
-0.006639026201671793
-0.12499511863758571
0.05870025682714326
-0.03780512441126923
-0.03026684189786178
0.011976454221005926
-0.06905281503237937
0.011674174731150073
-0.01270451037032567
-0.000728104966084795
0.010859462233889368
-0.09577766880835127
-0.058739136220205684
0.021554137565607694
0.10379470663119528
-0.039432076301279845
-0.00435380229189635
-0.08874443015705671
-0.03129814687125045
0.013073872760891475
0.02607894450978808
0.01659230127699366
-0.0032912482696159937
-0.030218104439405633
-0.02437394986942061
-0.06539872543237156
0.04483919042339103
0.07382032331051662
0.017346481463415896
0.04233221830832242
-0.024975591707204262
0.08757529798302122
-0.12086701941832063
0.04820178437736164
0.06317984231259231
0.08980918590267577
-0.008345272420488497
-0.005247385614253954
0.022671947511983467
0.037994480241851515
0.08036791648015064
0.09922971993754484
0.10004390597075302
-0.011624668708281934
-0.02037748072390453
0.01736520616271517
-0.021816502803461358
0.016618020450395014
-0.009493547324472317
0.04839624358424511
-0.04863686609094109
0.03842203894717433
0.0658905542421908
-0.02697450828778733
0.014148366443585051
0.08544963543894246
0.01417937793433751
0.031408004234260926
-0.05584009447032632
0.027288466743404672
-0.012848133220010253
0.054793270584655746
0.0606404445634158
0.02730368002833245
0.02976716634649705
0.07258137838703031
-0.07566983686535073
0.017097328773235814
0.004849667418828141
0.07603570411908529
0.005089953629397117
-0.024034250464060252
0.20648235559896355
0.48393097165464943
1.0849388649132776
0.41761118538602027
0.028056964255737754
0.02865564651555716
0.009803368000509828
-0.0032168732786999666
0.09907544445730367
0.03917195718954991
-0.06694009987341552
0.021860020916293927
-0.030326450224126285
0.058773369265719605
0.07764949359287496
-0.06579689698399706
0.11931579493685787
0.013865638696273712
-0.028933876400713866
-0.016023829273098773
-0.04941753344215836
0.019724806570864444
0.09317604035701534
0.015707171088938134
0.02069073922307134
-0.04051183652651179
-0.021002490954182138
0.030493807665591312
-0.012167983708766022
0.04229708689325494
-0.10297106301219616
-0.03911212734952211
-0.04360198068162105
-0.02001300398466932
0.13314168205877117
-0.013966699742053921
-0.026158362091977014
-0.002082042920143009
0.02870668367260632
-0.014116416188166447
-0.07621891557084258
0.032791243073298885
-0.02875478655729844
-0.028673257519523078
0.012820417929278103
0.0023113567911369863
0.08487469437139099
0.03443086158658787
-0.023824709421860803
-0.007305807923803017
0.012740039716849883
-0.006451883544209915
0.02216846873557782
0.08409353402149608
-0.09056138719963999
0.015135534907511626
-0.025317425551941355
-0.0031046964062144676
0.04439066029954209
0.0318585136802085
-0.038624163860440944
0.010879796582206135
0.04329996009068923
0.013720317219743056
-0.04732598677221364
-0.0733169575098753
-0.029610168325164124
-0.06186412849541184
-0.07023976263027545
0.013122699967364912
-0.0009196425355268257
-0.11426319572119054
-0.012655596744543668
-0.023550023637436582
-0.04135100196637731
-0.027117345252281374
0.0031966041913687477
0.05150208973904072
0.010952699759089512
0.006192507424281667
-0.07920704224430353
0.036108440721363856
0.02519403914498716
-0.09572080474394314
0.07178686368550534
0.030653271781923164
-0.03277226816916658
-0.06873579905104625
0.05114071371470983
-0.033365462155605596
0.016374367735966674
-0.010997704196693612
0.0013821716999641198
-0.05881395525926031
0.01507361462631125
-0.017366981655076375
0.1203254672123803
0.06830375572381846
0.06611939347237708
-0.06670623707952437
-0.07265598756761166
0.026045654052399454
0.01421747477427551
0.06944433755662457
0.03647133465236134
-0.03613020952087325
0.051611250298515265
-0.12778811142497581
-0.0705301049713186
0.004419689785347624
-0.003744287021171667
0.02168618876427635
0.03008810931200419
-0.03182961253582819
0.00281658550931938
-0.01324593077473463
0.037177902620880714
-0.07574864729779018
-0.03410549801880867
-0.024043164769921924
-0.03810765363885088
0.056998046001726956
-0.0508973559042228
0.08769483020486253
0.06370539890808376
0.033177416289346326
0.07570992082792388
0.058450545987623004
-0.04734435529380462
-0.008856277336052185
-0.022346144660637363
0.003515267570412567
-0.11025384140881173
0.04825867973232289
0.023866317211005624
0.052959934314447635
0.030395170770581955
0.015466342215468233
-0.029388366510422193
-0.011018673301134346
0.03941002809448369
0.026518072647847297
-0.11154753583886295
0.06554378105186746
0.07099744999452771
-0.025121958732324173
0.02380997907872051
0.05567445702162355
-0.03105260948100516
0.022872301231688943
0.009144090232975738
-0.027715444397642286
-0.018514364941952504
0.016252874250817423
0.01799965632166069
-0.056567094269737245
0.02689133752295171
-0.04591468318723976
-0.017368120763814665
-0.05388584899654957
-0.0026999921464277068
0.04442067060332859
-0.011524621108788739
0.017537631689317146
0.03725079322422038
0.028905403628426446
0.04400345215684112
-0.03196747789606976
0.027498173715228294
0.05926333924613915
-0.06931002599571044
0.05463298333485731
-0.011142894713389556
0.06328373873857991
-0.007962675928307733
-0.040316995743366044
-0.07141427000150218
-0.04826211546578958
0.053782655008184035
-0.08124402139652791
0.18987240075503276
-0.06621305444125915
0.004321892415699942
0.011622397501997377
-0.03260116608461385
0.012857461689818207
-0.042251282597912256
-0.0252695798409366
0.05448848842918208
0.015754712002298478
-0.02253068279904442
-0.014208525876950567
0.056127280701459295
-0.022033142369425968
0.020785575343856746
-0.03241468714828842
0.0427643750099781
0.06721036082888007
0.012955721835285325
0.0445403206091852
-0.05619157578436917
0.04250159968040839
-0.00682109922812437
0.056431098592467616
0.10872278713375659
-0.06252393122801643
-0.03859168287592362
0.024877109135770348
-0.045305503231007606
-0.0245625844502467
0.03698535555826025
-0.01859276954969277
0.09093227166876638
0.07923105655759784
0.018959700526948405
-0.041337669997679446
-0.04968726369452456
-0.014989272194048768
0.031246015367892156
0.06060730648349083
-0.027257933581102112
0.17906138813895917
0.49021179989989805
0.9788685388924372
0.5165304182674141
0.04116021002415265
-0.004446473242920431
0.12390411663451702
0.062105732312028455
0.005337864018791977
0.010755750520671018
0.0363698968680997
0.01863997183904142
0.04071034442099652
0.029393848806576563
0.03828203439521104
-0.08643202035098123
0.05598198799675304
0.008577929042259354
-0.004215791379411376
0.03127369130103396
0.035423404968394134
-6.63078943474636e-05
0.023234706084932874
0.05618615115489355
0.05503392144242236
-0.0038209303685020853
-0.049424580969967616
0.007281918156722703
0.0007395070258109532
-0.04457671098261164
-0.07934416821512864
0.018446827056038537
0.08307252129642834
0.12388721541386305
0.05275624865407195
0.010689498656695641
-0.03893954867775176
0.022392588255239376
-0.03495135255409229
0.06534145327424977
-0.025678896530108145
-0.026633150396335382
-0.010391035848295427
-0.04703446848441761
0.006144055560615778
-0.04851388722544274
-0.02309195240496931
0.03360961076343054
-0.05745642669320721
-0.08297553743452774
-0.005326505340290659
-0.08760750756243929
-0.023410842633664296
0.024016887586839914
0.02398653340958517
-0.06864648108538877
0.07895510471197434
-0.044652604364029264
0.03593323661978757
-0.03542827867288472
-0.04039011405479287
0.02474993474171278
0.040343022551621956
0.035635453504017
-0.03520321148558694
0.023441203360018304
-0.07949719918629491
0.00518546730912265
-0.11064091606242298
-0.09553329367081745
-0.060195942174920025
0.01708368447746911
-0.08891637692787052
0.042843747143479924
-0.015222762963203233
0.026697211221203773
-0.005892060104840007
0.037598009572333974
-0.016400336083599646
0.07155012876927523
0.041130258577846385
0.010812329484521635
-0.012042858714594706
0.009626250832843556
-0.013663034840536173
-0.03730791424260981
-0.07377871129081147
0.0009010338446765391
-0.013496894342297639
0.034724278197055265
0.09200143204959094
-0.010278575162192284
0.058166846663105155
-0.05117928697979382
-0.06868371557268964
-0.00670785715138746
0.05475197412384958
-0.0132986505360135
-0.08235024887357947
0.06645449524050245
-0.05386945122998743
-0.04509245594205996
0.040972418473189984
-0.05935529375442879
-0.019573434727679986
-0.08214008254889148
0.004715660713767733
0.06614461514686612
0.02608876617838848
0.08900812188332034
0.023366262009659966
0.03620795977423811
0.011036299999257948
0.04127008462195275
-0.04068260842962723
0.02109918411361219
-0.10702996329257237
0.13654550623865472
0.015972401295514218
-0.08426320487938563
0.13432033078267938
0.10266696561463438
0.04280674043208151
0.09853020289351579
0.029555550873787768
0.0017024764619940416
-0.04654936748886107
-0.0013874129711035103
0.04401546675493356
-0.033331407433500396
-0.030175278119036704
-0.0370685559156149
-0.052386587498699705
-0.08258670608700092
-0.006964423976069197
-0.05290344148603735
-0.05178221359344814
0.02621782458453639
0.1439540964929493
-0.018093412478486417
-0.09196451979057119
0.020528112810325676
0.07391932446807055
-0.03333567270607711
-0.04277105078376045
0.02675588306100737
0.02304243195349959
0.040607220899560835
0.010389061815153115
-0.00356945483196039
0.03558143918644744
-0.03459854594829022
0.03271845174237281
-0.04991999045111039
-0.039956480220299934
-0.13038178795120986
-0.02450842376870363
0.01101545403820202
0.19348645148676538
0.051171039356326886
0.07031903655136265
0.05094989196867794
0.04104243543212244
0.014110323751140096
-0.027901162987395634
-0.05003442713920081
0.029585025750753426
0.039651190724627645
0.0009773638788864276
0.005103378936551107
0.03503912805545902
-0.006481123923240225
0.058992075520597036
-0.0724650161757826
0.007256785041343911
-0.016831242877066176
0.08916092721335955
0.043858964066103734
0.018747347665219
0.0016874625400023291
-0.0016031845032782864
-0.0008961594494155529
0.0959672661485861
-0.06427221336426368
0.02677949111677938
-0.012673923086763031
-0.03431651210266851
-0.01722521078413193
-0.05655149093099067
-0.031980673669139696
0.05348346116350347
-0.10279737575474984
-0.02907712467577094
0.00428324764356309
0.02138422002676705
-0.011795643551849847
-0.05681844037926505
0.004276008476438092
0.056351072187290074
-0.05164157067210628
0.017662406923922232
0.01096400390962476
0.07371725165999612
0.010224827332560749
-0.006588872442919086
0.009538090446792675
0.0221761952655208
0.1280495513273498
0.49529245417843243
0.9705953457674826
0.5041538965110995
0.10920068920532784
0.011151598475147063
0.04046604722421802
-0.01467898226622193
0.09063104161781303
-0.016485252727959667
-0.01471643274404664
-0.06948294107352536
0.040109056916716214
0.06283202057238314
0.04304130957468366
-0.02594773308192133
-0.06787382402051462
0.07597223491534676
-0.01634948976397155
0.030680252516901547
0.015427984249923794
-0.06462346357974652
0.04488699231306302
0.07327428858822566
-0.04836685696510246
0.03289373903740177
0.021865947569714408
0.024497213581465588
-0.01741875801693074
-0.06130060979580986
-0.0667029270599614
-0.027748222879765323
-0.1489303887940451
-0.029550539422941082
-0.000916462979049189
0.021419246347782268
-0.030388370602406668
0.053123115939596434
0.0524926081597258
0.09855242222788746
0.04200506420280622
-0.029039649358530414
-0.050045580801545676
0.010517421608564226
0.01565300972219929
-0.05857621928176776
-0.06300308286428716
-0.08002473148993727
0.015304183179187504
-0.055094956317345414
-0.0371701630520134
0.06992531003533964
0.0837809434499085
-0.02475286419017723
0.004695052867339327
0.03935464884261806
-0.002266181844952768
0.09473110571539545
0.024139833904775983
-0.02999285571527993
0.06788618494639262
0.03704260826992201
-0.028703815311037814
0.13133416021218702
-0.04379630116800421
-0.003009047556493209
-0.09342322928986159
-0.0767703919636536
-0.003478829870958714
-0.0033486487447408845
0.02205394705487245
0.0020888716460102856
0.013517140681497557
-0.044775935337163536
-0.031005801188959865
-0.07139207075656166
0.061279557264274254
0.10262447119654657
-0.01243481415038487
0.023215335483751567
-0.017147625704676796
0.048057612972417396
0.001914551768055742
-0.10336218301476735
0.07382987670635241
0.05047268824937401
0.01881750474862088
-0.025400720468985928
-0.05490322382508222
0.00015630471900132418
-0.056979826051682704
-0.018682932095445616
0.014398403891316774
-0.03378849521651326
0.03070601934366761
0.06480976630868734
0.009146356228607176
0.04518480085765575
0.008613055725684991
0.033479497275172604
0.009840896529002186
-0.028793838260398733
0.07483565971138605
0.07763211984361078
0.04388259569867176
-0.06534190943654704
-0.0375180470394242
0.005551720402909496
-0.0423507701182964
-0.0689043023418061
0.058837874520895096
0.10305690365595882
-0.03271896201584618
0.04026265706001761
0.030504022942219475
0.03356806571492643
0.01933577630714221
-0.08821334507640342
0.053169479640793875
-0.023426186228085556
0.01956769894969662
-0.05872917314432076
-0.012109261247274988
0.07554981598389414
