ecg
0.03300646773352659
0.016553728881247502
0.007783708084456538
-0.04639342987619523
-0.004273209492382263
0.029767966755145755
0.044185558579854387
-0.056549847778062184
0.016744886158158168
-0.030388941779895595
0.06569075480850631
-0.05359895910090844
-0.053344664233862485
-0.05301227888633378
0.07250455531339016
-0.014902058875707261
-0.0169145535518854
0.01223787375139505
0.02411657926988235
0.006446021107264298
0.02569902449740849
0.00343437313527177
-0.006786174267325286
-0.009926622988331378
0.0856423066667789
0.02612257082816576
-0.04328615327878156
-0.0899832435508102
0.030705935534788772
-0.027018705304257918
0.04506912457263093
-0.060769037535645956
-0.0739462850114637
0.11279388193298129
0.013510527788558012
-0.03784638228537141
-0.03170567854643657
-0.018163413663758208
-0.1011179824949622
-0.025184918043745404
0.031773022903589146
-0.02447666647002439
0.0014694620211049769
-0.02041660959738562
0.09986901687809625
0.0015140360221285408
-0.06488893684171879
0.0658148764156743
0.028899186255705728
0.0069991766428378725
0.03668153946593382
-0.02275893951571585
0.05646103189388192
0.0014125831486299868
0.03435106669874174
-0.010213727763568466
-0.05290960590601157
-0.06097910670231889
0.0667065969452348
-0.01043549993695949
0.06480622197394043
0.03886789907629389
-0.04438674934246099
-0.041691288209917465
-0.03243801461427167
0.013092059105057122
-0.0887809933275147
0.07206378998086402
-0.036912220703738605
-0.0909451267144237
0.024776102162800986
0.005260154884672144
0.03591418283266568
-0.035711912567254755
0.0044879307349317025
-0.07450952082036925
-0.052822116071036866
-0.06555610235246473
0.07246294376459582
0.08091425539896521
-0.02879113077989002
-0.04191311197041172
0.029716166237695924
0.03498444017775564
-0.039155459140000445
0.012845227766261373
0.015699561744609784
0.0530927241946653
0.002060853822370517
-0.09066101667525167
0.0437229374576189
0.0359982297395876
0.04150884698267704
0.042870868228377323
-0.030433115429838682
-0.02858277980045983
-0.060742753409684984
0.012127921007848753
-0.028410426666179378
-0.01585561004656374
-0.08003612293952755
-0.04644175884057384
-0.06596713967448549
0.031801510704356495
-0.0384204932242814
0.07013314279859491
0.04760682404554628
-0.026080949814243495
-0.07138359007469212
-0.019497594898241488
-0.038529935271716456
0.02505605538282026
-0.019343450176870544
-0.01129259471720449
0.026579998925206006
0.03630183540115645
-0.020172167820914556
0.006409068574821271
0.059578253664997693
-0.01500799055600003
0.015908079707896757
0.02110973439361266
-0.05509746229513577
-0.07095371820250028
-0.1601644181375221
0.03842413095421816
-0.04033892903150202
-0.03978322929029699
0.10516524142685996
0.07623913006951369
0.09241007297386067
-0.09018832728326533
0.018614306557312294
0.01660596778137263
-0.023250978727796204
-0.0015553053550454228
-0.06542345025724143
-0.04359059047869786
-0.00827344360820155
-0.04193059739635907
-0.0870628208082329
0.0355209028050674
-0.04496887571634306
0.08367759766604731
-0.00454969383251061
0.10185083855024249
-0.09184483402273211
0.024479032255570434
0.1030798460864625
0.007582725308819558
0.022279197368011146
0.01968547895157801
0.07741361870262531
-0.06987406241915359
-0.02837414171282251
-0.06459612689047255
-0.011727987537584713
0.012780721299504375
0.020414783920713168
0.09655182046945544
-0.05332999213358276
-0.0018751281205213615
-0.05810472046732301
-0.005963546959777255
-0.04540983822826192
-0.03669098136717172
0.02474715949436315
-0.007587457912317132
-0.02554790976234734
-0.005267716914479555
0.06976696709043136
-0.034953681966356676
0.02497011959306595
0.07310793351841124
-0.02877047543818454
0.02717289331563438
0.020317274556082524
0.02531057065587739
-0.002188441215331024
-0.02295952156168408
-0.0201521584051209
-0.026437113925766417
-0.016610130021015444
0.013868645002868236
0.01494540859042273
0.025279508693919303
0.07825975151752428
-0.06167485027337465
-0.09560774719665568
0.0031076826893889293
-0.058744841887404725
0.05977724925330552
0.02371431974534205
0.00316235073867728
-0.007903974401832659
-0.09963131226312183
-0.014377996007653084
0.010883875995857412
-0.02955987170221149
-0.09969900515460815
0.047132630479517545
0.09947297358053843
-0.08821704392588714
-0.02007738497022367
-0.017729480289173035
0.06668794315656633
-0.03417947148519053
0.018496673341666273
-0.008925926165298565
-0.05318597383539958
0.07425705738703009
-0.011039399179389613
0.040099841454623926
0.0940382331159899
0.565013344620894
0.9765772379528428
0.6499844264936463
0.067502600055056
-0.01891116288630161
-0.0138731971161263
-0.021022884041322746
-0.024862335104733697
0.03420345448439901
0.012890357433718287
-0.026062916630436472
0.014844854756086913
-0.01493830780835742
-0.030399988292234722
-0.04501645232231411
-0.021344687041734464
0.06603160723333829
-0.03370334071748684
-0.12320854681372131
-0.03957963918577741
0.11183139079590775
-0.07496778907691419
-0.03584408029120224
0.0327337892270318
-0.0009952025991129272
0.003970199077988817
-0.09289487099348614
-0.0890084129075176
-0.13383312060431493
-0.02008405802343658
0.07093731400178059
-0.03966563701630508
-0.03405252343416531
0.007108461878700661
0.001937459434425477
0.05038397178965778
0.052572126331164294
-0.015646794981102035
-0.028131440936668896
-0.06746770838169013
0.034065304394693414
0.02773581521262653
0.09519518709210317
0.0031216089018828524
-0.012874299452169316
0.02379135357946368
0.07042128723107872
0.09681988270453695
0.027578196327970112
-0.003590849126272845
-0.11866647756304699
-0.06561508267617486
-0.004651547064587391
0.001685213316499767
-0.0724871818848014
-0.033304541029720476
-0.14933678848044624
0.013082874914887672
-0.05208114861566459
0.05103332880452182
0.031174385453182893
-0.0041754195579581785
-0.005669309718571958
-0.04261218718130039
-0.09120220716395674
0.09556323839116113
-0.0826186110698805
-0.057836273122445575
-0.05876286614042319
0.047724993252906384
0.016590670302123897
-0.017259491261385942
-0.030569934857670025
-0.015465684427573088
-0.02146924060163791
0.08944016350526646
0.024269905847722244
0.04495430971195792
0.063691397664782
0.04098715693357073
0.01696507604215271
0.009460919971112668
-0.039179733601085474
0.07795183600420282
0.059627153880618226
-0.031325392632027105
0.07651654725420984
0.03642823870727743
0.03501438190574732
0.043883530916809355
0.041039146317539105
-0.06201946815189734
0.1357421092069517
0.07876911905563608
-0.11334498869496715
0.020859785078105195
0.025178932772013225
0.05139915768094198
-0.027708343383811253
-0.0038133027017494196
0.04361317695764389
-0.06957834997060754
0.011987352472719561
-0.02325534126834534
0.032212819780941475
0.050162527422567396
-0.030570970525515107
-0.007880848137796518
0.01627488606711789
-0.03205769680661388
0.014073223809276917
-0.011706556821561943
0.016532662524626974
-0.035444525860364375
0.012508731770016046
-0.07493287109968876
-0.08278022730514734
-0.11477363959401939
0.04823022374789893
-0.035779556817504075
-0.043257343020138186
-0.03995590848526612
-0.006918680281622506
-0.06415029449531073
-0.11869097201812558
0.0516444906184349
0.015057982405476464
0.037347173230169194
0.013641644582227353
-0.012206359764727582
-0.08525785691224497
-0.0687176717625194
0.0019222006471631412
-0.04848602801178481
-0.03284602989422238
-0.026637752024066187
-0.03803824476915772
-0.04474244265138849
-0.06057031348445083
-0.012574392716116121
0.021719221508593872
-0.04308234066262187
0.014448818603565403
0.05640701947945436
-0.023133444326820806
-0.09660455952759543
0.08155444576371779
-0.06911222315796525
0.0233645423141646
0.013173690576698666
-0.0012464331144646805
-0.014502558368876565
0.029349321102358
-0.016002640583668362
-0.005620756595730227
-0.09924664241428616
0.021096935406381783
0.017052546576585528
-0.04435272144476862
-0.027218668946443116
-0.01985919261256484
-0.07486417430780724
-0.01005350895526503
-0.0197091106564908
-0.020530819927922352
-0.03606009784945676
-0.04834629686147598
0.03970600254088961
0.06673125475507538
0.015663973082358434
0.05838538678261969
-0.02234670642526436
-0.06558275873936788
0.012011196366599365
-0.023546850395719424
-0.0719163876774551
0.014254146869690579
-0.032529097615362365
-0.009920622449314397
-0.018314802500485852
-0.004273437263879423
-0.03477222970744291
-0.03018146610759509
0.062284244937184055
-0.09017066823160674
-0.03199081391577729
-0.014650757047272676
-0.05877767953473913
-0.019960496424572958
0.006407519439711256
0.02269216677320415
0.004212656859389777
-0.07724680258802057
-0.024855521540848552
-0.041259099404377775
0.04114414046606707
0.012655936259790973
0.07239092755473456
0.11557687474186416
-0.02792172889971653
-0.05080749158426739
-0.06142557352177597
-0.015358146772200001
0.031971352451601626
0.036918723007901534
0.007953353595504855
0.004996557194391075
0.04169452713760355
-0.01304214671681289
0.04859392994348191
0.4772207563348911
1.0524887705368193
0.4972429550005154
0.12584864744289165
-0.012460373236133072
-0.008160200654759607
-0.00035930310845061887
0.07074524511564245
-0.004888428882850499
-0.047946219830555054
-0.05079006468087514
0.004008174180211973
0.10238989546953198
-0.017144737913445396
0.05528585517013336
-0.015327714282471053
0.03838662603024772
0.06151479743917352
-0.06297292125217416
-0.05577882845397506
-0.07034477976160063
-0.08268193734878644
0.04881135146561764
-0.05059321480158982
-0.03992711544542229
0.11220953523325541
-0.02442086407960391
0.03277847173700129
-0.08559969026171167
0.07768741036889436
0.030780458097139998
-0.06750694757253979
0.011779009009839015
-0.002890006729412217
0.013539704432627288
-0.049032366353293735
0.0065892730330928215
-0.08301575082336897
0.0002129612268252014
-0.009247327999452213
-0.03725816595588393
-0.005718350026547828
-0.012454083615740602
0.008357147078269005
-0.021762878861628934
-0.054757111755628474
-0.0025612017796769197
-0.027068246414023014
-0.021500770713217852
-0.005983917107461677
0.007649544656702205
-0.04030112631375084
-0.06672442701840813
-0.005727727589803798
0.025849144912442664
-0.004996004161649199
0.029523487449586074
-0.07079513546192094
0.04176977960995468
0.008228129660238696
0.02708970074797107
0.06783544603106256
0.030806042503503252
-0.031111981950862372
-0.03057173600570704
-0.034252724754596085
0.043562120313926825
-0.12608889959559835
-0.07162014240046459
0.03447288498033191
0.005087252782250567
0.025052629694627855
-0.06933959269811697
-0.039690933912738896
-0.14987726351088357
0.035258569782540446
0.060213443525995114
0.025174690379740572
0.0441372533185559
-0.01864600202384725
0.05483877970774573
-0.007702265316463026
-0.09512963774873168
-0.041543374127682664
-0.02673697302102227
0.02028586884123217
-0.012647651020734098
0.06295555654183643
-0.04031198288248595
-0.07688622506224846
-0.03344972772275562
0.02127836554791295
-0.04042694157865699
0.024290708928285984
-0.06830272633430572
-0.09242210857044833
0.012631663612855951
-0.1336606883748385
0.025914205859797985
-0.03169650709835561
-0.04717391755910338
-0.03659494367557569
0.03440993328617819
-0.03876526352415774
-0.012479652181846065
0.13020600970780807
0.04684990615886145
-0.05195579184199545
0.034406791332624566
-0.07286629681032794
-0.039384995854231976
0.03885708252992562
-0.06722954902836016
-0.022585057739412332
-0.07686537155967534
0.017486574857248662
-0.07747055810995881
-0.08884995937756755
-0.10878371375367737
0.017412420731238065
-0.003945458815964702
0.07871247858043989
0.0077223883196019735
-0.009038121008489912
0.019727014992154887
0.029105139076013253
-0.03481043762017895
-0.05633287942955885
0.05382969104091134
0.034971215011988126
0.07221397037653719
0.05711721693322215
0.019022017233048482
0.02986345743276845
-0.0493792767614235
-0.07276205993161143
-0.027627687449299144
0.07845310340080541
0.04167568268455541
-0.05354574477056139
0.032212537705283394
-0.12194385475136467
-0.07165204727394585
-0.011665955723105607
-0.07575302585287527
0.04717248343554373
-0.02480536980302349
0.04668977260078064
-0.04369830794855396
0.01608807556072239
-0.0019164781359666554
-0.0025296415221950676
0.04957060146460465
0.05476048427452748
-0.004121094270783216
0.0014514727605742525
0.048374086535844685
0.030074498574894595
-0.08823578012726406
0.03768283805417106
0.007509752478687791
-0.06344062204840671
0.023017170551402504
0.04156889294392841
0.004189845655369352
-0.033784608993490756
-0.0037590997669756407
-0.02386592461578895
-0.005894037142099983
0.024910768483756018
-0.04611975649195874
0.07916341628451742
0.04373194383160205
-0.03301640346580757
-0.04809366528381626
-0.057937554862076496
-0.045998524079313825
0.05333250242995363
-0.05295526079481169
-0.10558499942879751
-0.07747900825826094
-0.01924473782006517
-0.008656713110053218
0.10051312550372167
0.01160161605757807
-0.03010304734352433
-0.03022830772274734
0.0068709050370781
0.08875011693125777
-0.06604452162146413
0.04517680134016869
0.023950191252525593
0.08626783299050471
0.09621269826115454
0.07597962977456592
0.4941507515608459
1.0365621477471942
0.505942395036546
0.0899160975614782
0.05920993166116655
-0.017777423002188614
-0.010327071673029091
-0.022899941615883348
-0.01448128797656381
-0.022887016156748367
-0.027173510117052314
-0.055927085794775004
0.03566482639192956
-0.033485933264754984
-0.028603634216321595
-0.05412933284619237
-0.03300994937318935
0.001399745563584803
-0.03315159575615667
-0.006022302634469069
-0.040396632057295656
-0.025530845450692764
-0.04828121357927564
0.07860602454474586
-0.044011759646714325
-0.030828845567352964
0.11372571770031457
0.01251408805732767
0.08217554778883884
0.02046207515497413
-0.04919110242354677
0.0343012339569631
-0.04327293584548211
0.0010464716110327587
-0.02034786532842997
-0.055276706607513576
-0.037923426916872505
0.0002850783528342742
0.08903901941018216
0.02405018368867189
0.02091647285384514
0.008573380839375566
-0.06437334096697038
0.026202551012557664
-0.02842515039271
0.08518586111452577
-0.05965874341784632
-0.044673598953299684
-0.017480794459200418
-0.08358234960643948
-0.007419253587791618
0.004478477484680765
0.010080559635604563
0.023271117307373735
-0.04978679902055806
-0.0058619302698141645
0.03191084345722269
-0.07260520375294159
0.05283965905998653
0.05570748318744443
0.039253544840286946
0.1368321045949181
0.05940479905208934
-0.008253366871879607
0.0008074664897408896
0.013223808692617895
0.03731685065102923
0.021025333478069515
-0.08169580540778576
-0.013369684507611357
0.04588687211086884
-0.06755955738066965
-0.0876417513925491
-0.010740524641727525
-0.04683394132922872
0.0278241713509679
0.07078662523910818
0.08566559010012753
0.0022107051536223955
0.028577637219940978
0.05504323986753418
0.059007276369642925
-0.058423807779298856
-0.027459676956188686
0.10890992737541237
0.03090550230637117
-0.016178267047649575
0.10476711380403814
0.0335299623764766
-0.006342754554778005
-0.08204802840617231
-0.01056871244018788
0.03935765880719319
-0.09504683223671984
0.0319418392969246
-0.014280440227934413
-0.010032541842710165
-0.014217841359389609
0.003213053951719397
0.06437516925511982
-0.006858869953939305
-0.06742010804007213
-0.013528293964105046
-0.03054064530998763
0.009844069598915248
-0.02266420073148493
0.002346580671468198
-0.027704807783228636
-0.013068821719615776
0.0033775103767402616
-0.08061395317058888
-0.0361819147542378
-0.06044015372570258
-0.07426658971956483
0.11797641169399348
0.0999724169602213
-0.041921534266707666
0.1021656153583582
0.07102893894819688
-0.01940449501169432
-0.00029297659322503455
0.028536592429837998
-0.026907790639475848
0.06774650703264755
-0.005332669819019077
0.06845949101620266
-0.004441453591238642
-0.012649076554280644
-0.03091680347848367
-0.0964502410283942
-0.01060417301627418
-0.050817190927936386
0.011189835025766698
0.061199475026008435
-0.014808541479854677
-0.0408962878437135
-0.035485852682323016
0.0252529057735531
0.03222778350431623
0.025656062583524993
-0.018246467342812545
0.001557065306462738
-0.08478587932747333
0.019620578972405125
0.061334939570479655
0.04945943488695009
0.0616071798209421
-0.03605536861335622
-0.11263115939976538
0.00943333785813549
-0.07733051311571632
0.025296865396142454
-0.03138042247620325
-0.006115093287550124
0.0545010509001477
0.08883710116299001
0.13274427332821456
-0.022209513079384048
0.0873086565297641
-0.04713795590454579
-0.03115086149264201
-0.08194575498188006
-0.004300566631650312
0.04023992297483242
0.038578402143436274
0.002902442905829166
0.053168183754291776
-0.016089770959439836
0.002833841607617942
-0.011254633211809563
0.07045798815334063
0.0921549587433152
-0.03590554001009029
0.017030941907291233
-0.03342854037454478
-0.023234063601525277
0.04185812231930655
0.02245552440117215
-0.055546754805724366
-0.01875253698102552
-0.039630638142453774
0.03348397714506002
0.010945056061046496
0.01771085302227712
0.05489090065227308
-0.03576204941955306
0.002549517722620194
0.03224622014324443
-0.040784238809231016
-0.03496002391459115
-0.014188457902313678
-0.05913130846499142
0.016912433184209243
0.01770272433448473
0.012339085284519897
0.0056869804395875845
0.016771492838771284
-0.05795678413182176
0.027410651220610555
-0.027506780060815222
-0.0561872443901567
0.03782253434802168
0.5193116790020345
0.94364400308741
0.4354672327646332
0.11576435713920133
-0.004269742572538665
0.05414114439840983
-0.005760518116898565
-0.08561837996425456
-0.003149067206488999
0.04507748381708615
0.13791134215954395
-0.01296020674357237
0.025334872345885603
-0.036553570251169176
0.043977130643214735
-0.007577124963263973
-0.0004971136018730495
-0.005407054235717546
0.07693925494746875
0.044240926962420976
-0.018437420137673063
0.012494377453562182
-0.0027573208736746957
0.011037762786987431
0.09161604268667983
-0.042964206162877785
-0.013788763304447636
-0.011166362201072089
0.02363380710274298
-0.08462238477134229
0.03413130527577759
-0.061532367724386285
-0.04517545664594091
-0.01832611864437476
-0.027134793211645164
0.0512572969359988
-0.029032245139726687
-0.06912793930344573
-0.010122826073172837
0.0805197303002651
-0.010879352088781283
-0.024760342560180528
0.05602523902394929
0.07293095410496535
-6.336484523641367e-05
-0.0019754292846259867
-0.008366179277919222
-0.058291382337879
-0.04392590485100023
0.10660847501962245
-0.038375295449908337
0.08577645790509514
-0.029259987539263607
0.021478238347538224
0.06037747234669252
0.048425196679041445
-0.03346911651826379
0.023449957625072616
0.012378219935449035
-0.01678193321180042
-0.017697868426356924
0.03097376025615732
-0.012005059220638999
0.026851093671247186
0.06219908947387085
0.004851231960519866
-0.008841737836355251
-0.018216199083028205
-0.06351978513474
-0.0426341267579212
0.03585265345469119
-0.0553433278362697
-0.07128855297975632
-0.04125670143338675
-0.03523591674793341
-0.006680352578466244
0.03365539405527243
-0.09440144907821302
0.1304722157408403
0.005356997368674938
0.012889775114299616
0.0043903441105392375
0.04307436697570281
-0.03527594019789156
0.04664337986330396
0.01941057363892862
0.008181815259391018
-0.022088385670638686
-0.032674682949785865
-0.01601852366866256
0.04645803377012566
0.04476223122765944
0.059301530702499855
0.028954564971902342
0.049957316878486334
-0.0519639059729247
0.06871303493608476
0.010740047694618397
0.0009134384146621873
0.02217443368605133
0.044048635847861076
-0.052850685684419474
0.05577482831899078
0.0008113862360005525
0.10002393517738406
0.09936907547470332
-0.05765986508144706
0.028367976739702205
-0.04615692340221963
0.07522029390722412
-0.006977637014105177
0.02255848162332194
0.008535800625069331
0.03319814506875087
0.04021901504113443
-0.0954688576016331
0.04257288053120943
0.023929449235649013
0.036211648195242044
-0.019401188857452425
-0.04665729617718615
0.03463805639750211
0.024706557575836133
-0.017358336291030244
-0.0013861039508575642
-0.016513395242940227
-0.04881257175123975
-0.07877679352446351
-0.08655763817028307
0.03909529066249269
-0.07922548904821664
0.0007197797817171427
-0.04879575928508547
0.009536910838963571
-0.004469136165349497
-0.031219858460982894
0.04383590866598928
-0.006353001992078571
0.03127203738732938
0.06633856847437646
0.022079800778382067
-0.02474721281316729
0.03162486304354406
0.03643215954938322
0.01629621793818657
0.03847456162885145
-0.030480496343192318
-0.020545411137504965
0.03885595510422721
0.021527441437381854
-0.007375745507641515
-0.057821380772078115
-0.03269235172649501
0.01738787582414703
-0.01845915636330111
0.060929090549182385
-0.0038734466623844346
-0.09045605876238469
-0.05773572604991504
-0.07343687966952779
-0.040980678109715334
0.009285329811596927
0.02959144769752027
0.026895867804547054
0.07376959743509663
0.04357563313985389
-0.020776955210842465
0.00547261393503365
-0.001898864912996753
0.011261839232262417
0.018345253930937794
-0.01790759767781914
-0.04661080082468769
0.040368381366316125
-0.011732338176892374
-0.07584717593771673
-0.00868250005189712
0.012651786716560849
-0.010766395728071216
-0.00982121622361179
-0.05670966712638405
0.020709185639222513
-0.01336785754016581
0.011490351397181615
-0.0814726457128542
0.02349141159053238
-0.0342068054144087
0.0663843399335271
-0.0464013311018001
0.004811634637812314
0.049239493005966695
0.09713206358024956
0.05251064577282019
-0.030991604866730266
0.015149335296688625
-0.05235608376383717
0.04198261723229023
0.020075238509885393
-0.013507112609569747
-0.04703952440072622
-0.003068639971862304
-0.06077214167819931
-0.0710078617178031
0.09062278804319461
0.0307499457968483
0.05818434519981545
-0.023834215712271286
0.0517836928524886
-0.07331170801282806
-0.014035694570003594
-0.04518845899781435
0.0863488716703957
0.041353868363896554
-0.008383586118162914
0.017709897652074827
0.0899683230123981
-0.04025850062973732
-0.0982974438729163
-0.06128881699853
0.06206058621396644
0.5227601980531253
1.0353681616577746
0.4757283754053394
0.08520708497673511
-0.0014078404306993916
0.03500713461670343
-0.060282575202001566
-0.04834887703360993
0.07172427976403829
0.06126803337422714
0.03948989724693017
-0.12549130791946495
0.0269297093541217
-0.014382521621018643
0.014405449407122595
-0.04698180435748006
0.03708533729934832
0.004814657468718653
0.04043541972500867
0.1066806134588926
0.017171903805669526
0.03741742400458722
-0.07561358961831341
-0.0025851490246885742
0.06467325960849063
-0.005367230326285742
0.0503978820441032
-0.07619507465767399
0.023370779830145044
0.03092861011466194
-0.03738596266764465
-0.07768031217256038
-0.06335811967302604
0.03692940852355874
-0.010566040856614074
-0.010009691489278801
-0.03141940553093527
0.017043892951643488
-0.018674359133239626
-0.0009286199404447346
-0.046077745433930645
-0.030143925272743767
0.0029608341686900123
0.006484833963075725
0.025520436032187607
-0.04430867839210938
-0.03263100901944843
-0.09610556318415064
0.03378066177301847
0.0063481205747495375
-0.0015971950031315402
0.019050643872234995
0.02112527377925097
-0.02264879601623195
0.050608333424156916
-0.0019403091386512368
-0.020845104087662186
0.007558259142112943
-0.038285161245061324
0.060090836306591566
-0.03990593830686148
-0.03865230789137178
-0.06361795119780221
0.052817429661408045
-0.12323507420805967
-0.06978477416187481
0.06708753376781486
-0.02224264330322781
0.006988550067779905
0.014164809663128995
-0.059184288277089214
0.00217334482474247
-0.020462443496048144
0.01115463235328666
-0.030251370455314855
0.02776162138273644
-0.012096107945138311
0.00297156195864195
-0.04609458356300805
0.004319919940043005
0.11311127251808153
-0.0001059530422940494
0.05168862686768392
0.10478084918486835
-0.004491178663934975
0.01370075668743266
-0.07550752646577995
0.004365330433116473
0.06282761003160368
0.012270728968595372
-0.06447843906801214
0.04908170828348492
0.04278310524981817
0.08228798700727136
0.04382333237328795
0.007245287642123075
0.06108174843235492
-0.023296490097614808
0.0037267607906871615
0.0320596573518512
-0.004187587100602012
-0.030520123012907293
0.06294472857546145
-0.047745734076365225
0.007248078091469029
-0.03426108608006739
0.03586552140982815
0.02524513440444815
-0.04220153120741821
-0.07315339543423849
0.021837536255998432
-0.013980448151857588
-0.056961469975226456
0.05640931516088709
-0.018309859703037577
-0.016913744183586234
0.04002682401621993
-0.0720689947515733
0.019318510211771837
0.015086651880451003
0.004137848720305363
-0.016170454694788238
0.051522800315089046
-0.08924616272540703
-0.02729608084442203
0.07286295856258355
0.044514452791868345
0.06303346124846644
0.0010360086916535959
0.024503095187565563
0.05659508118982043
-0.028016208743300394
-0.03415256314525418
0.010046391630305854
0.011697892555886082
0.049690851176072436
-0.01899602068380315
-0.04428211786522259
0.07752648485108926
0.024961264159550703
-0.006701634493669818
-0.039805581733349076
0.05944166594146454
0.04139808413938038
-0.01585290131861318
0.04370076884342255
-0.0006551727600137017
0.027318980467439524
0.011527247315855301
0.003626865341944305
-0.03943495717915532
-0.15939246236582827
0.05001327892052219
0.004922725733421961
-0.022639732399840972
-0.0015371846294198448
-0.006793933522393414
-0.1011399518166484
0.014178420531250345
0.047389338061385525
0.024951273834264192
-0.1025668460646046
-0.09282381723365551
-0.02754345808694941
-0.08698084170690434
0.02453450406615695
-0.036927280060003925
0.05538384778335603
0.09223146986564902
0.043803006935447884
0.00020664406056427785
-0.049261526621259266
0.00310047154385233
-0.0396480023847693
-0.07105089039813277
-0.023680653308472535
-0.05745399743797256
-0.0064459921082069375
-0.03611445949401003
-0.04094925109821381
-0.0028742623251735372
0.028690765177603706
0.04548084885485279
-0.027374342789146147
-0.017343610747609834
-0.07734127117967693
0.07759982909310793
0.08791951644660656
-0.005637366552205494
0.03280800491714486
-0.06607417245498846
0.014265108261700701
-0.019245076187639088
0.016781087890645134
0.016850975094997427
-0.022259849096194193
-0.05697464900875563
0.10463848442362174
0.001122489919059454
-0.03585587652905965
-0.031631116637242454
0.02103591194879892
-0.05834869394597461
0.1161049974247325
0.47899023317871386
1.0570525958877885
0.44543604176557394
0.16457636288664068
-0.036393213161961
-0.03123416446050011
0.0478135175823933
-0.05089032641803354
-0.018153723519002844
0.02657982519199291
0.0404952130650547
-0.028768394274311354
-0.008021747092475799
-0.03142666379008515
0.0744659009987862
0.007409710223535005
-0.003023851516006278
-0.01596272354563937
0.028172784060186775
0.03749895236575926
0.049680397573252884
0.09135376978125753
-0.014268675247281657
-0.007767312554286962
0.04026009873285341
-0.0668451746077272
-0.04231319106103578
-0.09246241021544466
0.055778901320129165
0.055680523774503
-0.014948551785305537
-0.07268876902400823
-0.024992413848002104
-0.03988015816240112
-0.06951516948842
-0.015140656739464199
-0.04443702141870381
-0.039327622916254336
-0.04089675915258756
-0.022266488541253113
0.00560397796226254
0.010644035347576793
-0.02581298584307953
0.0328640339598587
0.039647822028136284
0.016378240945867442
-0.09785824081876333
-0.042055324837180656
0.04865481802450184
0.053309038427281366
-0.06051550164241768
0.017060819097878807
-0.034639092029771244
0.010112785428322705
0.04796247869143848
0.048287916548025625
-0.034150041235665465
0.03296509861619081
0.11186882510132755
-0.06808603997340444
-0.10193455711966931
0.005352389632110139
0.044922482464340885
0.03866001747649075
0.06695114536148997
-0.05108709285429221
0.09850973044881582
0.06759423068229935
0.06404583743068445
0.020144603416082426
0.003652275192517852
0.01360887770722174
-0.037896742394594375
-0.010693071841684262
-0.02649098462267135
0.0845359015735596
0.09993652498819199
0.05143617378129503
0.045015400651773646
-0.1031355928628252
-0.01434754734475574
0.07605144137010275
-0.09786184388720201
0.09731651602072515
0.06520427247504605
-0.033147541311826144
-0.007096922338055609
0.031958642701860156
-0.01407678131766873
0.019596948597144715
-0.07629643390954549
-0.11931784896984868
0.035748200260137884
0.02348869130460017
0.08986811758813584
0.11592570324814484
0.016694203541183814
-0.051479595174595355
-0.014525694139132636
-0.06801910105961438
0.051746317559810656
-0.10417223011227153
0.004414498664216216
0.06036798232870403
-0.06355697538841293
-0.04773818374496254
-0.01900980465124124
0.03143433722324212
0.05217058674733776
0.19319529935722135
0.001879196025649108
-0.08243418196467435
0.0440519859896806
0.1149178132588439
0.03880918066154623
-0.07915319716923454
0.12714399057636744
-0.10699629513111633
0.0738842366093869
-0.0039341307793171985
0.024675457864377817
0.004394415552619257
0.036720878632948165
-0.033195751040557143
0.0031563760765394183
-0.0032569175994976614
0.02172376322503183
-0.014366329560906627
0.013823800950456155
-0.02956363917816439
-0.02418811414043818
-0.05065401110935867
0.007912782557986057
0.0403416746685301
0.08804283549665348
0.03693837398336153
0.011050469726213832
-0.033030532610323834
0.04796019438196178
0.071948544019156
-0.010983798042443517
0.044171172475347735
0.02263521318577297
0.060799956719522964
-0.1051103520628812
0.07995906133824235
0.04825768608689218
0.0005720855874302835
-0.08554562604657853
0.014282092216988916
-0.005475119444978313
-0.015268571632083786
-0.008313735001685979
0.019895889231371006
0.11693187780725128
0.017199492678418797
-0.03648002104690672
-0.005770637979588959
-0.026209632230229166
0.020499237961877272
-0.015118589747424076
0.0010233480781649395
0.04552978343393342
0.004432418658231583
0.0593866329750615
0.007054089484395228
-0.031785295754651284
0.054978137352978185
0.08898957145430157
0.005686138711718076
-0.005237259278452283
-0.015005012779163693
0.04244454558402095
-0.006722499687340746
-0.03936780961205777
-0.08250588505537476
0.03644363233386818
0.05919118301494082
0.03154317401097228
0.059085520864150656
0.011285893124513066
0.07852348684847109
0.002757094092173862
-0.028588158638011726
-0.04136108580525066
-0.013134468699761554
0.04334487107749687
-0.017872671050440242
-0.10801407266744437
0.0023137743216063793
-0.028302721090820937
-0.001329320169422362
-0.015500429241775677
0.033903020944188726
-0.008189536903897595
0.04597908881813943
-0.054401686992659064
-0.08235766404253787
-0.08084740036451278
0.1244471262511223
0.0405881911795418
0.016067527192165292
-0.062364074549686815
-0.07964408626817096
0.06841252237734176
0.07177650916596005
0.0018865011339065927
-0.00017911453892670165
0.013134469477635143
-0.09322871735202537
0.12491048878220345
0.4292892517071314
1.0161751551593354
0.4621124285970643
0.14384377197119652
-0.04077219600557582
-0.06254813849708565
0.05034950687222785
0.04005613599323344
0.02264178123902828
0.01385609364014954
-0.121072539398094
-0.07453133516062314
0.06044130722097033
-0.07848864643133383
0.13035492101116938
0.025668823636745188
-0.028496569441622346
0.036784574658657664
-0.11576804707678615
0.06123081089242432
0.05708029333427359
-0.021784773751737218
0.01730760775438239
0.061142637054166595
0.06257143295111876
0.003916794946039754
-0.03467866584886247
0.014684440052516816
0.04302228243642968
0.023781269563319815
-0.0030555295826472707
0.0034902839744591348
-0.039132130691257094
0.1019861535980438
0.04835205123174416
-0.08706293530856654
-0.018534876765664062
-0.030150693506132475
-0.09408369416433204
0.0954201310058314
0.04864141603007036
0.038195556266891834
0.04303131887894854
0.021418446688018847
-0.10695552395440298
-0.054252370419735366
-0.03328680844551257
0.01892919216251055
-0.015512674084807998
0.027805164129235373
0.06710276393352753
0.04480587068239148
0.05390095603828047
0.03242974769042394
-0.020514512824194475
-0.008747816948272725
0.06382735735511298
-0.0175602368688493
0.0991849009547629
-0.055689560817155925
0.0011849031260604114
0.02260191757085328
-0.04340641113266384
0.005743716061695972
-0.04615085742067291
-0.056021139846391704
-0.013369281299154899
-0.13755869791267036
0.028409218187462604
-0.01202764576591623
0.001645168331295864
0.1212514706202928
0.05141498082199535
-0.03929805003658779
0.02493157993273494
-0.01072166134280511
-0.011865891890364178
0.031192259864205003
0.029986602781411128
0.05784553213761421
0.04211644684192756
-0.03186667909766652
-0.11783188647974681
0.05511003389073989
-0.021364670502011338
-0.04164796975632071
0.06259713389932543
0.020423780333050374
0.07170859954627472
0.08176632391708515
-0.004094977986592716
-0.020998152321410293
-0.034988203835986435
-0.048818312506147946
0.008874098914295995
0.03259394540080717
-0.018928522984275636
-0.050150663176302596
0.05024774743264442
0.01504882127727812
-0.032571839459497924
0.06617555100062103
-0.01761687131790009
-0.005418811529386284
0.00550689047028384
0.06946170148229074
0.037038158758964594
0.014390085661185145
0.0846465843985162
0.07805267907639657
0.05643967655514608
0.05300260592555842
-0.020504860121939743
-0.02906714976033168
0.015077603169960655
-0.04279703256387776
0.04112108279540297
0.015674301129187575
-0.05131239213370153
-0.044716383167329996
-0.04508900064460125
0.09003303973421412
0.05063400783350135
-0.03300851315452926
-0.051986984406317806
0.004173410851908056
-0.05305218579008234
-0.13882648693294392
-0.017024654826759272
0.039710290694065224
-0.051399290129500466
-0.04591415927044355
-0.032215746066333886
0.030885712955682883
-0.05338997830946867
0.03860645389928863
0.048109025070770806
-0.021232717048438862
-0.08033544945710142
0.0707787032123575
-0.04005197959087667
0.022090551494009847
-0.000447803415921637
-0.025032061278150903
0.055527358686974726
-0.03311200729808631
-0.004747752453703985
-0.04151946161902061
-0.0016854198277934428
0.11577430327244696
0.035096685042746614
0.04605999161204109
-0.01284470634090949
-0.00392378297707569
-0.0922054996811607
0.0761600623929507
-0.032189032232235223
-0.04664428887955372
0.09850378845430119
0.05150775664147248
-0.0030972509745833435
-0.04907340540366759
0.02955192982498535
0.05092743105766188
0.005765385116307645
0.02404515198460694
0.01835006072482744
-0.01941771930414336
-0.07261647946942837
0.06146821809956796
-0.08239330603699585
0.008518631563659621
-0.10217234721376922
0.054172178379496595
-0.07609076218057566
0.025909381074311774
-0.0367261675819291
-0.06991049042900427
0.14482454294777083
-0.0420220874866953
-0.05808169615106756
0.013345588490584457
0.08153637834656806
0.051419915326473636
0.09501074143554539
0.018981709309401157
-0.0012082166524677337
0.03740638855185016
-0.013481984727426108
-0.038362490280536336
0.15221740021770555
-0.016094692049921405
0.0348467429810341
-0.038922917196668814
-0.04578270886544781
-0.004726729532552844
-0.019706915151418203
-0.03485069493412177
0.006267382083979383
-0.05716803520008441
-0.016422705412085806
-0.05849106335651795
0.0027108392630756945
-0.04044930304234554
-0.06026004092362597
0.025452843005828896
0.03265164356599152
0.011075286117739655
-0.0030115970100201553
0.11198288236550569
0.500010223094931
1.1294368256550622
0.517222420511145
0.09650354557120484
0.005972577587085603
0.051248385708961425
0.003641013561340783
-0.03456103691274226
0.02917235824678656
0.009127846509327268
-0.06964973169093028
-0.0560641178577182
-0.024187563159624333
0.05706543484555687
0.028578125223622075
0.02572033548571312
0.02904036228768371
0.011863150701243308
-0.013368198590032599
-0.09649445321027542
0.09543830049725854
0.03255770512740293
-0.020391589561480978
0.020897401582608766
-0.05931855911925872
0.08500798293558194
-0.028563453284495378
0.045639736166689183
0.0003005553728095314
-0.013568446544795243
0.011219605608189865
0.039413352215204055
-0.06722309350476822
-0.03522610917108614
-0.005322909215327622
0.04197748057467409
-0.04650809570836659
-1.3597460086607856e-05
0.018375317379047202
-0.03983400681568447
-0.03407850753823199
0.08313524060212069
0.04501817128270255
-0.01194621331770555
-0.00256378401022263
-0.033641770027427374
0.07092290524501524
0.008312973103121303
0.08543035671253564
-0.008977745829480731
-0.012686374130245355
0.040199532159841525
-0.0033259665122636626
0.03926510044774221
-0.01553865426061426
-0.033846689174330195
0.07583742409259227
-0.019318317750591785
0.021090711101648875
-0.04979949933211069
-0.05823543760941111
-0.023476862513696014
-0.07033122191384504
0.01941727792651521
0.031152295706079837
-0.0014145681365591099
-0.019911110403852864
-0.051631418964376334
0.006174526630148169
-0.05675018690534363
0.112242486607204
-0.15788575740153077
0.010528052676309636
-0.09412127842473444
-0.08098864479185192
0.04901478089383237
0.04710291370524658
-0.022833278519642078
0.016043597415943227
0.03702481642171201
-0.05980840097419478
0.05926254498956407
0.001482533934094009
0.08923305091102296
0.029106807440476584
-0.0009521418904180261
0.017778338750830177
0.02162626349741959
-0.03452723784372106
0.09849736560090923
0.005650083969921135
-0.012869263268018741
-0.06738250702503026
-0.0473354534823227
0.00697678179122446
0.1428916416334027
-0.009172042697377902
-0.00327398271458432
-0.016968468778638456
-0.06086433995323755
0.055091333790635515
-0.0349476224982136
0.01826252510155792
-0.019776677830790262
0.004767237353121044
0.10366097871496636
0.06689691647049255
-0.07660423537627005
0.0291126187350992
0.01806994749632505
0.13496042895449759
0.03246242659442708
-0.0387017890132911
0.09993621226214346
-0.047483529389958916
0.0264248631268456
0.02970993129096841
0.05820735944514191
-0.06653198770040654
-0.031419290935944026
0.023591885882425702
-0.050896013106217254
0.042945826259726386
-0.028105858983270546
0.039207110463693656
-0.023441830718762158
0.018327321434870012
-0.06120409302890816
0.05994218286670671
-0.04881172622312668
-0.0456702132442654
-0.0786069633128203
0.054830053357173204
0.014792733109859868
0.020074209429601964
0.04451276240541787
-0.06612368470914606
-0.013039636408529731
-0.12181213515975498
-0.00761495925211837
-0.08803050799734216
-0.012282915161696512
0.03251964709038225
-0.039958528751241305
0.022271608925070734
-0.052615100184515234
0.08836825830533893
-0.02208552917303699
-0.03858925687743427
0.0058808217327077205
0.05581660702507096
0.046702432866191614
-0.06906607247444001
0.032851277964880576
-0.012315092559216107
-0.017578762739695827
0.02598762650787267
0.0478157424132868
-0.02032131373593253
-0.04611981830950232
0.05012349320886056
-0.029662631204526887
0.04868720433616741
-0.03609325057010211
0.017268182126141746
-0.02052355762188931
-0.025655676270105128
-0.015387066373644821
-0.034786808266999356
0.0034054173039947087
-0.04440521829359895
-0.01199643990675374
0.09005144599723391
-0.03794547865987016
-0.0004725501368341357
0.019696712883390886
-0.03130692639749826
0.06401389928958981
0.07278069209001144
0.03622700262617989
0.020833535432228347
-0.009144108540181675
0.08990737274701147
0.01995181170648074
-0.011708612206336455
0.07294664486393977
0.06915179303863574
0.006997108074044443
-0.06319051560603646
0.04622398669256994
0.029687077140885965
-0.06197008520759506
0.07631911054748135
0.07197460267318019
-0.05039669926401737
-0.07355432935162678
0.01548656173014042
-0.022308944473275485
-0.009299539479284772
-0.01525195684037892
-0.057468274196322666
0.045261967786909614
0.10091882253500492
0.5003358741385762
0.9842781522905618
0.500798526715364
0.09288127383407212
-0.007493902092639533
0.04162616792582352
-0.0520093225755067
-0.07210350668435893
0.03137258825688829
0.07239387256730438
-0.053710188859415975
0.04207424281842922
0.05625658871184061
-0.13683028897079733
0.14520298272519677
-0.010023140129648847
-0.004758157867809122
-0.08328635523284221
-0.05043728287632572
0.017471715498648163
-0.049568440268507256
0.0015487418758088982
0.002200445924837951
0.017789488350199473
-0.09870206435448611
-0.030045889731569242
0.09137262612664027
-0.048514130804083795
-0.0501952484594042
0.017210075013804168
0.024553575819737813
-0.03175525962798186
-0.013723027650752583
-0.02933035793258757
-0.11871890063579645
0.06829464570892195
-0.05709099746542961
-0.07714590251076164
-0.0691110317817313
-0.12522574028754768
0.021114119739267745
-0.001586083268536164
-0.09783119500008046
0.0021162373424942985
0.00831865158477658
0.06351431085649717
0.011446614651743563
0.07968725492981629
-0.04096056822412191
-0.023648095331224216
0.06405969922685965
0.04945400279494176
-0.08686930636030855
-0.02847283685680013
0.03445770990394011
-0.028982014361916116
-0.0097338641285305
-0.031208819005142135
-0.00648947000148267
0.02685839865557087
0.10597755707722123
-0.1355219523346456
-0.04602001931914371
0.04165199325494819
0.10604982765781193
0.05767986425490235
0.02480364794493953
-0.02248821578344882
-0.06569965178633179
-0.021934041757257314
0.03101376916503904
0.04783859925620229
-0.038890670017372286
0.010631271212179825
0.03153917833707217
-0.04515339320547018
-0.031716740677137714
0.003014292126173771
-0.09176187622916873
0.02668445305863903
0.03538254026434858
0.055185621677694544
0.03453314817070573
0.042198620964486504
0.0043316660346663545
-0.01626609024492657
-0.09347828174118088
0.09563719039683784
-0.03125838370995029
0.04344722703712898
-0.03260960948786067
0.03611362700918903
0.018773875508859093
0.05687172411368448
0.0521463213044642
0.025658409308235125
-0.049077085074899024
-0.030976240514627586
-0.07427925657414351
-0.003570892068632438
-0.01203350758456611
0.010442413204327823
0.03963859579918691
0.028423552111204155
0.02927455526798188
-0.07919183386438017
-0.04106728699340448
-0.07210896101064716
0.017321169093625337
-0.04447612480303622
-0.07303114881831665
0.060516927380800695
0.0384292976760785
0.03089542137195382
0.029276024546135756
-0.010279974351768952
-0.010558724523029875
0.047008588543796984
-0.017346418701614477
0.061016542180305056
0.025415741683452116
-0.008070942688252425
-0.04943747913728158
0.07781616418614867
-0.006645304486455616
0.0030286263681908823
0.04340578964916951
0.04179107708891865
0.01580661172579535
0.10817831692691703
-0.09141264520959523
-0.0168412807976775
-0.029414448712340804
0.08695857154450426
-0.018917577135496955
-0.02571086831717785
-0.04285790546494818
0.031329928341905726
-0.028414278170841235
0.04083988846494221
0.013381067251688429
0.03381838858565965
0.017405207492428458
0.07874095437119821
0.027899016458173855
-0.022786609963258327
0.14045186959131892
-0.012445288740485633
-0.025356112168247888
-0.061028974965269094
0.1038496068183535
-0.01267937336394473
-0.10269692831311768
0.12835744696355153
0.08612353868466738
0.07257529917699654
0.0784786280286052
0.059280715847347835
0.07786904162635944
-0.04152307592835007
0.024627906506990992
0.0011489107588500862
0.013034554408653263
-0.0219899534825741
0.01425002673786042
-0.08219326968716965
-0.03823691650853303
-0.022399724133889083
0.017538045993438358
-0.00280561315355839
0.05021608196359802
-0.004416812389457773
-0.018713782752622372
-0.03327698343137946
-0.0062204505255922145
0.050049502455891175
0.0630132305979526
0.06034811552138716
0.02945056095839396
-0.027307674886673995
0.006234941941281671
-0.009456315319024905
-0.00933120145256433
0.06945961235525348
0.0204220740036173
-0.07867161473152406
0.04469276308799011
-0.008832646309716103
-0.029656193106735645
0.015495139088494812
-0.05388429080471566
0.028029313457948707
-0.05367233463886271
0.01975973468962921
-0.037537387171210045
0.0448456608748124
-0.04982776223932499
-0.040766375464138555
0.02781499535772998
0.1025590652824303
0.019579621123429418
-0.03619283685311761
-0.11547238769356234
-0.0273747225176708
-0.01683767310407652
0.15159988688428172
0.5216449124402649
0.8833879765570394
0.430334749482579
0.20872864617683287
0.030456526581164007
0.05820129329840901
0.08172378262756053
-0.048880397491483846
-0.013954008683563121
0.023788057530177105
0.019643671303358357
0.017485065139383426
0.001245102919352029
-0.005365003721639183
-0.01738409242219471
0.10612748232024197
0.03384203399839572
-0.026689490852551335
0.07524202878819612
0.07845739671099156
0.09489326675073258
0.04342958391567255
0.07447786614935152
-0.030753798321216774
0.040423750996546944
0.022792091541251787
-0.023170365134311286
0.0786173302155744
0.004878665890546714
0.041452909935196486
0.08412157557541976
0.008073552805058266
0.002044424990056183
-0.027459245866044896
0.006110306295832684
-0.0701192984133803
0.06342871519760583
0.030377306552327617
0.049016360516231906
-0.01542913554667613
-0.021947725653784608
-0.005493510987238942
-0.0394102651052996
-0.01596695811292625
-0.10167283506255509
-0.007315841715815716
-0.07498539475930482
0.07077124320355588
0.04738328814836571
-0.03467227190444343
-0.09286673261727119
-0.008203099977842824
0.017594559023180793
-0.09812307180759555
-0.07182464353308245
-0.05501011876761647
-0.010026942938249577
0.039184216799436664
0.005752394081751395
0.02832701860877018
0.0801230644997282
-0.07913060054876886
-0.0038020371214394937
-0.006692787063763639
0.07664344694846015
0.027815156416308547
-0.01691564965209625
-0.0327479865669786
0.05364814555385872
0.010661570053980132
0.02356159083952101
0.13568873424149255
0.026103963652095327
0.036002559889260675
0.031497727932482726
0.07416328796424397
-0.011074043189375573
0.02866892812960739
0.00886216095087446
0.037879686926951844
-0.01960344249868296
0.022063855836428867
-0.03559918446632526
0.035235595659478036
0.04323330452121062
-0.02028875294908277
-0.017970876669777657
0.0588044872314841
-0.028942582392814328
-0.049981944600525574
-0.011433674334587696
-0.0031926895487011096
-0.013489005573610916
-0.0433206638026918
-0.05496114723693816
0.007658036627241681
0.06390783748170668
-0.08819615003323976
-0.0435797140455012
-0.013679458127177222
0.015569011016382098
-0.005351208212714741
-0.016504980466477467
-0.03229665766788097
-0.09213823247943495
-0.08772052553755717
-0.06515271731845249
0.04743000368438568
0.05939853053035471
-0.00415647846960537
-0.02469015863697078
0.036390790577663694
0.04608977247735954
0.0431039225783125
0.03439631212157404
-0.08064959336963884
-0.015493697170202601
-0.13189454189276126
0.06357371963395204
-0.07543500821469756
-0.045489676943075014
0.0875353159104865
0.06442956870364029
0.09425266770043668
0.04419482035558551
-0.004209841531813584
0.03643912663601982
-0.13109071079208387
0.0256212782660882
-0.0027366514437827645
-0.010338683563974839
0.07865313471504665
0.03655000697606993
0.08756726942907489
0.007721148693196365
0.0430147452721962
0.04872735485708309
-0.046333479115382256
-0.022110739460032485
-0.12035929409516943
-0.06385566725906157
-0.0401428229003733
0.025182408194789303
0.027752953204738556
0.03954736644786777
-0.13639374485447628
0.01897593067409592
-0.02599195924757851
0.018683585813537018
0.053831201215369655
-0.03176038164900043
-0.009982522716603055
0.02735769703929164
0.002480050084207241
-0.04690778940899833
0.08812563244846652
-0.03927771209169511
-0.09487239363048468
0.06611158213108233
-0.02777835978858588
0.01658459833459611
-0.01959233225904973
-0.03090644489312403
0.030442463067552595
-0.052817414211175584
-0.011956012163454266
-0.009442338705851396
-0.027619942880721504
0.0318966927338265
-0.0027110376521677685
0.06927683250949938
0.08694755865638745
-0.023377428189622
-0.022628251723717487
0.07639751048427264
-0.0002124401052623238
-0.042185259599241326
0.024498983797731043
-0.10377435919244693
0.015446414110058843
-0.07132440068051853
0.0005914041820847039
-0.018107424249116134
0.001403505264698768
0.0018935934556733088
0.03276458168029726
0.02086356659247433
-0.0427498432960927
0.05473529041721153
-0.008263090005356915
0.0802565066004855
0.05327985309792921
-0.0059537194098905465
0.05439004777448347
-0.06500699078184964
-0.022939033507197688
-0.03384435310511475
-0.04364182740697402
-0.048040548407701465
0.11973445040539027
0.035831539823069025
0.02094388087624799
0.02411135836534013
0.1212114708828595
-0.061487758476886235
-0.08782702325088687
0.01392177639974076
0.08474014038411834
0.46377643966052423
0.962978138513133
0.4563530378883619
0.05519702667029158
0.01493602048777954
0.0414353437631573
-0.05886655758914242
-0.03765493156224084
0.0760276270420079
-0.07440525489025045
-0.019741819075472313
-0.03645082375412358
0.015729956811419397
-0.04857817930659761
0.015806687666185402
0.0261327847127759
-0.026884527033717933
0.015845672769141946
-0.024684347015049422
0.008936432468187263
0.0013435582263685865
0.020342235490105668
-0.06308473198238636
0.017686830589898575
0.02956257790872534
0.018511546500736817
-0.015565520402555927
-0.05404266146964995
-0.06633583517561191
0.014545690827547274
-0.04477661400049185
0.07260894939436695
0.08025359607853641
-0.03745303425554863
-0.02238524873572002
0.03603315825069566
-0.012956605649217726
0.01885121853049354
0.050887816359261866
-0.06472257385303004
-0.03089267954341069
-0.06327603246403507
0.021884110851149455
-0.027575531403433568
0.033604181277970324
-0.0689928137537253
-0.07032893465714492
0.0676491731560383
0.052407151270395524
0.008856739655415266
-0.01628016585667521
0.020610700591912917
-0.0015611198901414978
-0.033292236660120544
0.03417101537495949
-0.03547956792873446
0.011239261325032661
-0.03528996656184879
-0.012507508197543605
-0.011654257174113825
0.008463983185324042
-0.018084485570978578
-0.06155965118905707
0.027203227027067095
0.0014795211691085134
0.012412069640329308
0.03749240090776686
0.054726624912845356
0.00796727427223518
0.04732495093001897
0.09496407343558001
-0.024584499323665483
0.007267657685475205
0.05319654763075881
0.03617015740403987
-0.12063800996314307
0.062288478334501456
-0.06113014674735913
0.03259242702377234
0.03506552912199977
-0.005724100288352168
0.053419113420785404
0.007257583666991457
0.05347880860003195
0.011742677754133665
-0.020205654730319635
-0.05084162412432924
0.07279979775334304
-0.06167661389339987
-0.07437691852136459
0.031557764930752116
0.003949224101375161
-0.03425222956988649
0.022421163326551925
0.07041159733930566
0.00951699170966329
-0.08326734019562636
0.038004486245965474
-0.054315260365587086
0.029205985087277394
-0.008277277049933463
0.1042758041857666
0.03376839049023042
0.00011750866709301814
-0.05571987476483975
0.06271041924464453
0.03821287331823502
-0.031565809872913374
0.0279816122984501
-0.029683338019700963
-0.12131276202880976
0.06700302553132907
0.01802170775390556
0.011742426715456796
0.002816887126453042
-0.0004030719803867964
0.013496726564853144
-0.029738650707998932
-0.09884078773323485
-0.049846813125459286
0.03282995188240641
-0.07183551611001318
0.010178467590384951
0.016525634815360738
0.06995408190942728
0.006518562882443073
-0.07656442788381813
0.07347825772827309
-0.03594582859244811
0.018388717616275814
-0.01405515086855387
0.01616158345856437
-0.061141529598225164
0.03588071414241893
-0.0005572376928829821
-0.03601029277059852
0.08459745899225617
-0.08282729658419562
0.018920992341756086
-0.06977577680225894
0.06643618805052373
-0.00032145703343602504
0.01776432946348025
0.034604552177494155
0.04648161352040892
-0.001845665522124639
0.051420578487285235
0.004323928627813726
-0.05594702718747563
0.09944671417145788
-0.017955298416460992
0.040732389187422696
0.09293169131266393
0.010262087898495649
-0.11257197522690299
-0.03144621647018573
-0.01693176285424652
0.00013310817284418105
0.04167719068162676
0.053981188732545364
-0.025337111369103
-0.05728732677366338
-0.025497605867806618
0.04080552130090709
0.045314002092920476
0.024103375864573867
-0.010211032025512552
-0.04990443614752305
-0.07359201998583148
-0.1348492750517899
0.015744325926810323
-0.010441376324355215
0.09381795331400669
0.008904001932920727
-0.04033568093702886
-0.01701376713133133
-0.004998504364274732
-0.06738273700653204
0.006551858676931155
-0.14408047668904708
0.11508625345564255
0.1283100154069964
0.06752851795001637
0.03142330593010773
0.03789620312417383
-0.032295176154551235
-0.03200853616777679
0.021895206987790027
0.013346485260970953
-0.05629359773701423
0.00632475790406548
-0.06801924898594064
0.05787257667799716
-0.04090351220979065
0.09428852662597335
0.028378054965470807
-0.021282870736308825
-0.058854683296835575
-0.03206333997055505
-0.034437793247616914
0.04190042178845993
0.002516021617359235
-0.0764514975038925
0.05231910243102875
-0.061376730876858965
0.02329175791466298
-0.10205569013776501
-0.0031586586791100026
-0.0454049582101104
0.06990699815680343
0.05508147380034348
0.021406969688599328
-0.03150238824511631
0.0013180010439552262
-0.018454503619358048
0.015329772759651356
0.029010139211901716
-0.0856259203811528
0.11412914449737939
0.5589187763659283
1.0587031750342226
0.5341212574214385
0.1024283051469603
0.011051852936033352
0.13214200364615597
0.026472975957818
-0.08987124516443132
-0.009816530067918838
0.0004762454466780896
-0.0515803760245335
0.10608455795034562
0.04446165618380428
0.062412048426711754
0.0522917425882581
-0.05704727849242117
0.005082625231360709
0.009353212165483238
-0.061573896370293216
0.053875046298880507
-0.024713675580943797
-0.04424799630911491
0.004971115063044459
-0.029227411226336122
-0.06661158468013689
-0.028664695458532903
-0.12070418376499202
0.014851506234997178
0.014755520728258312
0.009945228251169273
0.007281450970551182
-0.04224532616664681
-0.06935928701250006
-0.0032066198700258504
-0.055516383182445256
0.06328592144029209
-0.0366368503091882
0.0024092585867482464
-0.06676684961041314
-0.03867819439973896
-0.01063208199898222
-0.0558021293000589
-0.025564499328424098
-0.03967322737310064
0.0459990816903138
-0.028947634372313086
0.020477030362169857
0.015005104843011466
0.03917238346313732
0.07576996598289343
-0.01650300807000626
0.046476051336793354
-0.042065922610615536
-0.12038759260609183
-0.05794754751881014
0.03697236775475932
0.02549237598951659
-0.11648359919997392
0.04859576733404266
-0.00832800602759171
0.017320840422077873
-0.06489890019666394
0.035104958966084336
0.09049059915531055
0.032058495066126846
-0.03234881042016096
0.009396977912970464
0.04054682106486004
-0.007595376538623778
-0.019230080233386283
-0.048163190337555103
-0.09063305636113689
-0.01658319310369162
0.06529967541350828
0.02930367479848975
0.041572737741325215
0.053858573696559844
-0.019714726964165465
0.035442748990139744
0.060247652111038386
-0.10543577851958674
0.006085803141405955
-0.03956698013319287
0.015078066935611582
0.007207908459474693
-0.03542074229787685
0.031886777853139585
0.040499711652793424
-0.05023871733583643
0.05263221905005059
0.02184350831667666
-0.002664756117729352
0.054049851533537724
0.04542245099960525
0.05477858085706999
0.06610430810334296
-0.030960719895151475
0.03632605072148531
0.1373798909402809
0.004623172668295056
-0.10670284755687263
0.04954962327958491
0.03609558438137415
-0.0011137886452863824
0.031846086813535956
-0.05185379514906642
-0.0898187414989914
-0.0006452233689018662
0.016708546461225198
0.0007542468841939582
-0.00598016095546254
-0.09960668219229163
-0.001570904731229152
0.0015316792928343843
0.014761806579764057
-0.07222488671403034
0.052005543849579644
0.04823255024057441
-0.02095811815818708
0.08919689349998934
-0.017613230001285497
0.03975889124484899
-0.061433673511919244
-0.05083120185885218
-0.010818948743899331
0.06683021538309987
0.014033391879304628
0.03924376051931419
-0.011020192486066532
0.023206151334424663
0.0704459845535398
-0.027831481381474205
0.07604802426285762
-0.019393232525067743
-0.02045411640561258
-0.033858551926475994
-0.0014763360514974716
-0.01995450132516162
-0.0032292316246970497
-0.07131634995710767
0.014210698298474215
0.00658170041463157
0.0534868734799892
0.022701114839270457
-0.003771251634959453
-0.06640252144662298
0.01718657076460973
-0.0008366431078076224
-0.0067315234690303195
0.03240898985069545
0.05621536437406863
0.05598411259896018
0.04323490441511934
-0.0037767853451680586
-0.06996172058174822
-0.024323865101013083
-0.038272772492105665
0.02686417649885958
0.006066061605225458
0.0903929533918991
0.058188293848792885
0.028543081346941553
-0.05054113346761424
-0.038526778010459714
-0.06656641598707778
0.01759754182332328
-0.06266629377501567
0.024726050160828905
-0.06780044217040006
0.05152576554721833
-0.07345944829416871
-0.08365695315812233
-0.012222760029021321
0.051253162411852994
-0.027560832674974237
-0.08325332554550902
-0.025810730095105094
0.02131001544841573
-0.030332524515444888
-0.10020636572220593
-0.04815551031475096
0.036654239147517774
0.08990329542193302
-0.01870677836106539
-0.030306775602503517
-0.03342434139701145
-0.01591978588157247
0.04814199475051725
0.04557460355829136
0.05004798097238548
0.04573642655540451
-0.05338603994945717
-0.04737670126811156
0.07724371857334462
-0.08861986806506761
0.09488781731849512
0.44327954637704153
0.980819381227838
0.4685858891961618
0.03966321973449902
-0.0061017987928260325
0.02869553814761723
0.004216438019269206
-0.005149904304972353
0.03633142219201073
0.009874549419683205
-0.019855126132201455
0.06050270704284606
-0.01667981542210112
0.08842831143223706
-0.004441048859026062
0.059601793838907006
-0.05996528372937975
0.009650932072728761
-0.00204818492289077
0.04583441500087262
-0.06206368726693351
0.08035189516953789
-0.02043012529622923
0.0009665424597346296
0.030950291878984598
-0.11202540412671738
0.030397364851964915
0.05518245651478015
-0.0012275341435315733
0.04310317440027899
0.024804195918779946
0.046847699341589555
0.007227865420501584
0.047699533424331475
-0.012916610882022134
0.010116776185481922
0.03142892138092933
-0.07920471369968927
0.019878424067598998
-0.002371011210955086
0.015129559599638945
-0.02760132789165924
-0.09637082698567
-0.0027250251991209895
0.02333257135787581
-0.019432953163261966
0.022421185736400784
-0.051591443948321686
-0.04045124566788834
0.018334082595820027
0.006389296743668245
0.010384138194041222
-0.012436047639171093
-0.07009653706433082
0.029238199022316252
-0.021549961967857564
-0.13212139058506958
-0.019526460843459617
0.042503044845885664
-0.07127229779719811
-0.05964403620616037
0.018627101213017982
0.03030430233563638
0.045183084624586686
-0.002018827623878213
-0.05535945829535347
-0.045978834692639324
0.08434743843212629
0.029749327517952347
0.07549130892745765
-0.014812085903605771
-0.060630879006275055
0.004787916619111395
-0.03936158927394042
0.03867343650912508
0.13892943990324683
-0.00098219341745578
0.022249550542845123
-0.049733691153060755
-0.05460576901206241
-0.014354878356645806
0.08154618387406407
0.01637515974539167
-2.9356690629434807e-05
0.00500721781335096
-0.0689219960234755
0.05676097754275098
0.040668136947285424
-0.04500993851861338
0.00702200809235387
-0.011282516243711745
0.04367572041587494
0.11543276406696726
-0.02815984081832178
0.028346170123544418
0.03038132648773184
-0.008772540210716271
-0.02662033341292032
0.02170150267059768
-0.017027363895646807
0.011025778314905003
0.05980862474441228
-0.04435677529058668
-0.02873198667218954
0.02418198242503018
0.011834182515168686
-0.01900148584033241
0.01836739495997855
0.07845289286283391
0.03430380542772959
0.002631580627412351
0.018149270144491622
-0.08772424320888758
-0.03516022071591254
0.033502181727963085
0.019237882885075375
0.024786568692506724
0.008303472047728444
-0.020709824444843556
0.07642702781211062
0.0316200117308418
-0.009468155092814859
0.1473022323557787
0.017944025954597886
0.0811743022502541
-0.016937573816804673
0.10564467761846602
0.024806669444480525
0.020895258932568026
0.021876727446078055
-0.013275441957152564
0.10319347582584795
0.08066708226956142
-0.13554733192505003
0.04052653734084484
-0.01504521950478701
-0.05919088247316075
-0.07044478565955178
0.06419963708775481
-0.008045192417415607
-0.055397103999646716
-0.07842091772701268
-0.08725150757590587
-0.007753744412190285
0.018642114492062985
-0.012393542404051112
-0.05943139417068133
0.019020167709076535
0.033750404393908175
-0.1050210226594188
0.010981927491114263
-0.024898635506194453
0.010443325339684685
0.0028007238950118925
0.022739713003487497
-0.053135975749381906
0.03605976503962835
0.0488795350226547
0.012017566375566668
-0.06414679592255705
-0.010807157720578421
0.030642126623149718
-0.004598524117809046
-0.04571937560376579
-0.06184188866077173
0.0009487440690351882
0.04454456205397671
-0.05901936528041579
0.021320050195028247
0.0063153179805605615
-0.04410134762749271
0.003969319906988253
-0.0013750239238288393
0.0066282428349706685
-0.07072000142981932
-0.06024537430955549
0.11229589906440503
0.05083220356884155
-0.026622957608625777
-0.034186650155047495
-0.015922729822880257
0.05402395234782072
-0.003207463805882216
0.005907737667740304
0.008933084485393579
-0.027467325707783936
0.06074538750303935
-0.026216850266224473
-0.050467059061024826
0.03825059130440274
-0.005633650774868685
0.06527339141834142
-0.022733044300745457
-0.028286754277775123
-0.05244983795513426
0.018912213053047994
0.047022627363482505
-0.054167110774490546
0.02453956920626351
0.02900349092189815
-0.00627456007943804
-0.003580781653060028
0.11934043637011466
0.5017014808044228
0.9623508381037092
0.4236254707614205
0.16995045156525612
-0.005294986096414392
0.015005608155191835
-0.01777776624648916
-0.007211717642647163
0.011985289374201423
-0.049484538191390016
-0.01382160515243433
0.026345698420438962
-0.052929544002920305
0.019174762304425594
0.032661024637078984
0.04065378190842055
0.022154505020768826
0.0702548868074125
-0.03366012876123297
-0.041329756691683324
0.022403824437167583
-0.023425664030564716
-0.03296783715560055
0.0014346938344876497
-0.03691058790627565
0.00858816784658863
0.05507267693249779
-0.023610190126878094
0.0396379268867138
0.0038720981461378063
0.04596583455646325
0.0760856402201836
0.009495217823029294
0.009775665215850665
0.00608787617005091
0.03874679012385993
-0.016448914400990104
0.13248633165222548
-5.523618196764661e-05
0.007878957452767336
0.00751266792965672
-0.06753265132832144
-0.05732088874302587
0.02938492016873373
-0.033980361823261335
0.040820301169994876
-0.10934745984162096
0.08428028448005004
0.06578013726354734
-0.04162259962452202
0.08492657692462667
0.02685482905171237
-0.06364991239902626
1.0572759732747914e-05
-0.04980679695679998
-0.025911543905368147
-0.06935671772889605
0.10130488411028263
-0.048541802576506504
0.008069229042150591
-0.02177965305305441
-0.015444953505150155
-0.013466866619608588
-0.0056095351725044575
-0.05569872800398427
-0.056598322975524265
0.0028464106674950516
-0.06854757436087326
-0.005952267519720498
-0.039247065944030414
-0.09654688602397635
0.0294639153174545
0.032346626474077135
-0.09516622716803974
-0.04461866595905073
-0.015960759911154945
0.06740064891599633
0.0688072114550643
-0.033220008949148234
0.03764580466333189
-0.023101650164370435
-0.06592764789218983
0.0978348709719734
-0.06624345885389642
0.03134420592282133
0.01330875707312059
-0.08236502492005925
-0.04785573303846139
0.035748951402353187
-0.0009803247536910825
0.017121898178923824
-0.018835584661437327
0.09274733513522083
-0.03924600720905068
-0.09640893338354457
-0.020045933183615933
0.03014670982348243
0.002534437681609664
0.011626516512446018
-0.0492907054119741
0.1104233517266574
-0.026581518106530408
0.014120041108570092
0.07877667272314012
-0.12699424136555942
0.01126520948001216
0.008863427426576349
-0.03932165421746724
0.006739064934210086
0.005553416261700357
-0.015139899114347011
0.033985846601781965
-0.004028937537478438
0.028696228809077108
0.04872099968222422
0.05583698355500147
-0.04048213667392575
0.00833217146922501
-0.06476218741928376
-0.047187439480548
-0.015605590056813223
0.0001969029047416947
-0.04409031709971209
-0.02927040943899419
-0.013789361863532782
-0.04211187041167532
0.08042543793963848
0.08937152046407736
-0.07949785763022006
0.08056628088923112
-0.07933977050067899
-0.006892201120843693
-0.0029199052975284424
-0.015828533260007004
-0.04025572736760851
-0.020455332979007673
-0.0598466291946522
0.036321744601644106
-0.08270147370707279
0.013605819102256304
-0.08902974841323318
0.022657336529765742
-0.02379060715494719
0.004273206480338669
-0.024006566347914315
-0.05339148420749379
0.03249307251410293
-0.05466507312106166
-0.03477119206789769
0.0024570579094698665
0.008710044651890028
0.02206250724587975
-0.06762654947995705
0.012267996958107935
0.10135771612047997
0.04367400944727449
0.04771408848665407
-0.05230969588161413
-0.059186720034195055
0.0590257538120775
-0.056443943440822
0.10743897881583311
-0.07719338533363644
0.06967780287467999
-0.022878222475538574
-0.08141149699021821
0.009243031222681579
-0.05309803273595858
-0.0055090760654120515
0.047470709006397216
-0.13584782442571977
-0.006527244985605711
0.03409365847924778
-0.04663781989173246
-0.011494506219650629
-0.06308754547829998
-0.05344231977699876
0.002716370001951387
0.02130573138794541
0.018004564356130858
0.0338585201984794
-0.03975825880638152
-0.0122993623320232
-0.008551747580703251
-0.025164114744748348
-0.07610976644177164
-0.009155102622264355
0.09354046822644324
0.0506818039489517
-0.07696858364115386
-0.01573621576188949
0.03228046098822553
0.05142162344553657
-0.025943409700211084
-0.06746166573325105
0.027059897357297455
0.048723489182144336
-0.02838504479445495
0.014268082542891037
-0.01754762664849636
0.06932550596406696
-0.05961505992190705
0.09665062678449736
-0.024629963692397054
-0.04488787547626886
0.046543535900714396
-0.012184578392275469
0.024885069397210673
-0.0016487099867115364
-0.018224111031685253
-0.03926564313499714
0.041152304531606176
-0.08511755252415681
0.011749277493513365
0.08304936663955276
0.0027653947852068175
-0.023998857114376868
0.0730698654398569
0.008332847912470685
0.1062713285880213
-0.06479192056515788
0.04563671695624332
0.48015504368740286
1.0219434587682987
0.5665248374388675
0.14189748639997815
-0.015475074314617818
-0.009620915683227196
0.05865636108727606
-0.03174150089738043
-0.026998250234815897
0.017009985531545462
0.004934802625321456
0.05611585065263869
-0.014450180537440759
-0.018811814748984232
0.011729516188021026
-0.016031184622888408
0.054196952825183956
0.04555401569039826
-0.048077814440153584
-0.01273066104085491
-0.07349794597535463
0.03488132306121688
0.0795999040651833
-0.08301292530641066
-0.036668752701332026
-0.05459073570509981
-0.014862827976656823
0.05731369049032108
-0.054657644777134445
-0.003991304186319505
0.013760000774604304
-0.08775511671678604
0.0067213414440039174
-0.0197455867076342
0.0713942293561064
0.03602988058611861
-0.014718900223747
-0.026344091679142347
-0.08307010213529893
-0.0034111913978920254
-0.011404474963305329
-0.005175802375630568
0.04311974956979951
0.010000097136098285
0.013093779647125417
0.03421272714219241
-0.010589594969819718
-0.018135229005220473
-0.06279279353975646
0.09011910523888965
0.031976965117323695
-0.033431896266539855
0.0485883996152513
0.0682590321180297
-0.0024255195110740872
0.03171457196693744
-0.01013245314624273
-0.057640448203803187
-0.048927790356467875
0.03582167707519122
-0.02245564998695774
-0.09280403476859628
0.0031707002472673943
0.0700222462320514
0.011963696420226676
-0.013164542378841727
-0.010178591554713564
-0.04236189494390683
0.012035097566174855
0.042658680841928
0.016702162213657428
0.04876250582260927
-0.03445647351904026
0.019636613296347232
-0.020662335078800165
-0.01697693591546797
0.023552014698275257
0.030551996834644934
0.038179969621741076
-0.006850171242863229
-0.046802438340584396
0.059235367337846935
0.03448453395392141
0.036071221254848164
0.04759954588264587
-0.09073125281291118
0.005497401189380886
-0.0027751322420419004
0.0038731209733649237
0.009339213763699308
-0.027718547261006213
0.06701475382900031
0.023673942824932064
0.004784438341638548
0.016421198644566756
-0.030820634146183995
0.031113854866143355
0.03934681068960008
0.04536444974801198
0.023680334030686298
0.05983351161109005
-0.04819000446126372
0.008133230538389621
0.044112358315341424
-0.003936312508506164
-0.0820897333946704
0.11956479696017171
0.05646449124549829
0.008809390926447834
-0.029043577042309622
-0.015504035808548323
-0.1389799536967463
0.07067223865555898
-0.03161476092198777
0.0010323948144822916
0.07164899482895083
-0.013069367175189119
-0.013537362957604927
-0.05073292728367149
-0.04972670630829335
-0.07209586274614947
0.0013405777824747212
-0.011125655259354024
-0.06855985420102657
0.024277336156908764
-0.02881480663547431
-0.0491032166544062
-0.02869634596986359
-0.01714659715557825
0.013298042634370469
0.014511161214288783
-0.04736442796690175
0.015238557340205497
-0.017385247678697147
0.00670156164128833
0.026729941636261603
-0.05679425560596895
-0.035211679918412835
0.0161107650631672
-0.06965592006086256
-0.0328996249524983
-0.029362609512955714
0.009187604700425822
-0.04731898034439284
0.06819263766379695
0.028053128559438208
-0.0619105200242012
-0.043334483250706574
0.009268568749522666
0.03384832809752111
0.01968014262982033
-0.03494490322364171
-0.026388791665336905
-0.016607692531433987
-0.05719352486936609
-0.016672999659500597
-0.06722868525984217
0.02497427748341712
0.020543854434913706
-0.07855928848693579
-0.09587427740698712
-0.017687270467811617
0.007784570137662411
0.05609803815937923
-0.037446190679523476
-0.0921361486744182
0.04950010342346442
0.020881472305447672
0.08034533668880203
-0.030993249325562522
0.08285854696055046
0.031861776132956425
0.04676710168793939
0.08628397839428625
-0.01807351497547917
-0.0429441711838246
0.048422751867033154
-0.01855493529122076
-0.006138293725657731
0.0038558877360025273
-0.0023379887273691385
0.003785419979187374
-0.07606959398550561
0.07012835284941629
-0.015816752538246756
-0.14346492642250006
-0.030961674152770666
-0.03587225270046703
-0.05030785122878872
-0.03433774490270589
0.035548981324270285
0.0292126274059853
-0.07642497204867538
-0.07126556716672695
-0.039226577822438005
-0.1442584108463397
0.01962443950693198
0.16819068440646429
0.5092544208228267
1.0156255226785926
0.4781062715713904
0.07054078843482584
-0.030773834039557788
-0.02295614424967113
-0.061716967818857375
-0.072435510677551
0.015069783047823465
-0.05631954939047357
0.008842029147944774
-0.03866962604016778
-0.08598125118905342
-0.011636108350035918
-0.004054184441840712
-0.0926153059555414
-0.033319367613283
-0.06456037183635942
0.014595112679613931
0.009779508188395994
0.03670410290654976
-0.032776270920023394
-0.06121347061361159
-0.08179012225031972
-4.445393321186869e-05
0.09785281752696573
0.10123267183149304
0.04428009987396111
0.01539777693285489
0.04611020147037592
0.12590768308044165
0.007080487062374664
0.035604553814921974
-0.03851497394130835
0.012597240070335773
0.035308444837381346
-0.040362968059435976
-0.019484238903108252
-0.020997978086463528
-0.013283327229261883
-0.024781772859258946
-0.026157994073986602
-0.02823674892599248
-0.07087646655956985
-0.06340181780396106
0.047576473139676674
0.03787909573787661
-0.005075261055781873
0.02380338735540567
-0.02205967041906306
0.14998653291813738
-0.019583231999616202
-0.05880847841269791
0.02172672843989906
0.00848101790810305
-0.029700520517819906
0.023568420514761945
-0.07114079111839887
-0.00601545254359348
0.019146259735664903
-0.00997092466499643
0.01648126993207474
0.05985338587976308
-0.012410619574629389
0.05607116339896678
-0.048171519126564574
0.009743427688737347
-0.017878168977115843
-0.07750054938548268
-0.12317246203908237
-0.02388754504354247
-0.038996289033608474
-0.07184237577906936
0.07652974947682384
-0.04173574762688164
-0.03150440763497328
0.04692588773308071
-0.0465730694601966
-0.006743017276738535
-0.027619621591688254
-0.060066098002394645
0.04715550354621362
0.0009776211684334602
-0.05602065852612423
-0.05189546160310274
-0.11503088144358778
-0.041895250600348634
-0.07804408385097343
-0.024428552272423357
0.07572365414669106
-0.05163447037621002
-0.0346068724298247
0.006962343028572438
0.10317974851913676
0.08774399320323172
-0.017233129999816337
-0.014205700905275537
0.04549466784051648
0.0750834220654959
-0.024913392125626734
-0.08368878452505048
0.047757587314719734
0.003237269834229598
-0.04107090060532493
0.039583609700238415
-0.09575924194785941
0.05372736929392355
0.06955563540967631
-0.058275739867214654
-0.015739437567359096
-0.044844721992440044
-0.0037881644838034037
0.021167065017454877
0.007972478666355228
-0.030248014762024662
-0.02348608726756828
-0.017994265152574396
0.02763492746831447
0.0057459843498715345
0.005225030065387873
-0.06104087464088555
0.09772558240244139
-0.03615249532228095
-0.04559847182215604
0.03432863404434256
-0.02268481282189161
0.001025414760057261
-0.0219056492492602
0.06321644956712628
0.07227073071725862
0.06351130124325094
0.0023847079014253595
0.05363693220326798
-0.06384338968682164
-0.07068881289548472
-0.007034160564056877
0.001904591330610701
-0.03323796901505729
-0.07880851122108327
0.08277963759717871
0.04873298777111841
0.03565673571094684
-0.03904320011044814
-0.013130357869369608
-0.05081136213685351
0.011021527542584867
0.058113507597109676
0.06785832183792766
-0.0430003783714473
-0.0042555300240512866
0.07316423568273249
0.06070564067106347
-0.049049573105700905
-0.010767686348379475
0.0029553505069550194
-0.021350023163237537
0.020835911365627725
0.05543940317729983
-0.04775158237485093
-0.0007091357848835776
-0.02792262173411497
0.049640770537107186
0.02031545451991732
-0.00546826657336295
-0.060120917215707684
0.09348155511227509
0.03449127050527461
-0.060862695817377827
-0.0071633915087366195
-0.03791772189302134
0.03882270089618881
0.02065212220717447
0.02534915490977573
-0.043807848170434364
-0.018979876177331975
0.022588792507331448
0.07006874298004316
0.0202384485787177
0.09735571612507338
-0.056118512328634684
-0.05656988097865236
-0.06739981829517554
0.008253631871638406
-0.018338198465821073
-0.021794802320714683
-0.05501375537958622
0.0502866631258496
0.004465432536311662
-0.05291962465002095
0.01761277703345659
0.010892864212593783
-0.032449781285813675
0.0015298502031687578
0.0061551603611831734
-0.027257298296422417
-0.0034699153313010943
-0.010488823263582026
-0.04426895340182188
-0.003940695240809389
0.0028528017384914827
-0.0011006184643761235
-0.07135841804845008
0.009012352593135388
-0.04081323999441327
0.038841511308865845
0.03002043274877087
-0.007913006288776255
-0.09345923852618618
0.03369636692982934
-0.05927747754592876
-0.15221274008890914
0.05399076065923289
0.046752700877261265
0.01218213168424262
0.03423343576463269
-0.00816191740461289
0.05449341284576525
0.04196091457715649
0.05129946171492377
0.10166222182169829
0.49860265767644346
1.0517559577390432
0.45230992723209873
0.08014018195436011
-0.021456900741374522
0.06539881784739009
0.001187931807580718
-0.004423296969473168
-0.037796602591493096
0.01111576686248775
0.08896108887292942
-0.04951916528515729
-0.007863974355597911
0.1514917235147383
-0.06221050550467934
-0.04057956125554508
-0.021580253064188246
-0.05258238872353647
-0.053652266578149116
0.01245507504112011
0.0566680359856568
-0.11988117785666307
0.029910298647748235
0.019966826078635935
0.022086616328270105
-0.030541461861019265
-0.02401837947273255
0.018704451592111305
-0.025018188647860026
-0.0447431827498131
-0.05405563634171458
0.026247238618062066
-0.09833394711418299
-0.013768994215645895
-0.008256694343292311
-0.015282555438476841
-0.004549051461022951
-0.03560818102730753
0.06634852471214533
-0.0753457696845707
-0.002350767641276322
-0.05940530344625109
-0.041851402783545474
0.011140292712314284
0.045544942727970855
0.013547910445671258
-0.004853995856539249
0.017788122653137332
0.0585955780917981
0.02127620300715659
-0.08164936306033801
0.07588817441473067
0.02670166598961099
-0.023520465971252475
-0.11163426740456606
0.02014249523327415
-0.010023148043992687
0.06331022367238308
-0.005834671290590478
0.023202019411145004
0.00036941942639362235
-0.0640635322224832
-0.08775447426879815
-0.028077222943448943
-0.049980604949402506
-0.039104892888745184
-0.018866775228202366
0.05370225530565714
0.008857383921657093
0.05231148951284992
-0.04224090185174023
-0.05426108725255835
0.020602204087239437
0.005188434424963204
0.05624077538882423
0.008903831498570821
-0.0657715912238256
-0.03467293238714976
-0.028508847319586667
0.017745131925891833
0.037079672116582876
-0.02455242596376479
-0.018978214136369454
-0.021172125327687592
0.027703615634715364
-0.08388941862129434
0.07575159756245692
0.0660922909242435
0.005314463013454657
-0.014627616053013246
0.036862612142673314
0.04410301053141919
0.0377253228319101
-0.029156591765694746
0.013255419354636333
0.034844007063148094
-0.03152894221886853
0.014418990723831982
0.06980078881608524
0.05047584142587132
0.021666165818659867
0.02317655520113609
-0.026506327735244858
0.03272388764554977
0.05881503225517132
-0.014288785862250662
0.06049648217752721
0.059333357018768074
0.03654657090818761
0.12164673178077999
-0.026591579845455522
0.06584452109134994
-0.012537858233958855
0.06457976012038476
-0.0370303953949661
0.016453120693796456
0.010807646644363424
-0.016214075930453067
0.010093851471423415
-0.07473795058925292
-0.0140865409499538
-0.03527256919351433
-0.03539948209150303
-0.023425164308599703
0.00924192333306525
0.03285535996657441
-0.06283616503606886
0.02024931683421485
-0.031657129631786914
-0.06095002404929792
0.043423905435626256
-0.01890776304549556
0.04852964605650936
-0.056815350479301224
0.01074015436845636
-0.019901862178125566
0.036472646147560975
-0.05087070426583597
-0.031353757792729524
-0.06451779280442237
-0.028493006905445158
0.026350297171936373
-0.04612266491384165
-0.056809883077392535
0.10354984138709918
0.008697555860830836
-0.12752088127957825
-0.061829921866160126
-0.036788892925109416
0.029593074054026752
-0.0016138140723803128
-0.057835341925268784
0.00027610489064513907
-0.0034350441362163437
0.06427249116821972
0.05459438756257341
0.056831046787329045
0.043375365109575015
0.0014090963037161573
0.00767623853170842
0.006517125768041568
0.005218994929210979
0.008146985974262015
-0.007612990176392999
-0.002169429916748642
-0.08139018399811843
-0.008518895872708083
0.05630678233490682
0.025408696521702114
-0.06058537245092315
-0.055134539784704666
-0.009393690771270648
-0.08796812861798298
-0.08932755089928753
0.07587015675498507
0.042871532260024936
0.049385716979837596
0.019103207324889945
-0.014516162256334142
-0.013552140283394552
-0.02451902086788736
0.04256185504563567
-0.050868244983896915
-0.004045809359990499
-0.018744736654379156
-0.04361351687799778
0.03402173604098659
-0.07445391049145134
-0.005804466112518773
0.07448855510110376
0.053498947307270873
-0.02371322358609286
0.013616939589967354
-0.007623576113893147
-0.03670769139999396
0.03296822223419945
0.03711495409802992
0.05816076204603753
-0.011458698573259362
-0.0730558631646057
0.03805852973662557
-0.04507826178377533
-0.041776207660428874
-0.01353525478222954
0.039959480223624444
0.02148650669758221
0.15158546721144733
0.5201252339306303
0.9989291972856713
0.43068985345469146
0.11939711107619445
0.020836960110592422
0.08929362417920367
-0.018374009602758198
0.0071913492627254105
0.02799166593749336
0.028235115924142563
0.10374124616809247
-0.09433965888856194
0.0401124615002988
-0.028672237812851886
0.01258219697083515
0.07423072681008656
-0.023612520265980038
-0.06024073368468317
-0.0006973337349689146
-0.03500665259258097
0.04931672878543048
-0.09076035858838623
0.014632408151438129
0.08475880975645994
-0.035566371656486344
-0.0027904416550345486
0.007513778609312544
0.08353450984046551
-0.003212891899476307
-0.030213880022499768
-0.019178362835563484
0.01156557071182301
-0.0006785673371155378
0.060145195947577106
0.000127892759853124
0.04003376583968857
0.007348221805515623
-0.04166847932208105
0.08565388919988765
0.05293093044490661
-0.02545631749262855
0.021577456543072263
-0.03923063945147666
-0.06476187249099556
0.04246964723278834
0.03768300043504772
0.002857912623892435
0.0011815028402221085
-0.06272354287344009
0.08209763497643124
-0.044026762073101744
0.06330078237016193
0.10026525795523428
0.0019896952585011255
-0.001977051210931944
-0.004609373946931265
0.013353501540562569
-0.019819782452737897
0.0021683763374201726
-0.011076457284051953
0.01823463207183877
-0.051046897051678766
0.03541519693495362
-0.0005813979072321062
0.027958772929953024
-0.026469418568489875
0.04545769455932158
-0.013242496008730615
-0.00894796579513065
-0.10436515087326054
0.022815364027571335
0.09767852183186485
0.006990066619590368
-0.01283501790933232
-0.04883454078523239
0.024422423592154935
-0.020959696914421167
-0.020480745123378205
0.0643269102139714
0.0007410659303697284
0.020280350138420607
-0.05920963053939909
0.0034714796853751416
-0.018807448287623877
-0.04462951471727138
0.007778471636555715
0.05022230487483187
-0.0020342160013677095
-0.036885156064332784
0.02388150931060171
-0.0651385198619451
0.026194335649119202
-0.017753567605806046
0.03521653253495061
-0.058068135201174015
-0.08356546698881478
-0.05052889219829229
-0.05284043717049526
-0.05175028912912562
0.10468093865301618
-0.06138745844438373
0.002368044116329014
-0.0058851920454039315
0.011135169816814908
0.0033646971618149766
-0.06144053077313846
0.06704320127777656
0.03819833615960988
0.04655945458838135
0.04449200157829289
0.033434201796407
0.0739003549728546
-0.03369078587823665
0.002394251558488729
0.025673034277120206
-0.03479684001669197
0.007325293040193456
-0.11240581620781925
0.044188799726611445
0.021542029151939097
0.03474637616265431
0.027792467030573656
0.016894239398781038
-0.0757385320877764
-0.0010056767871606427
-0.09043153860191837
-0.04352662143229737
0.04501595228495544
0.06254405548802491
0.013896621220418846
0.0047138735696362335
0.03239023419738769
-0.015023234079876102
0.03830042107272292
-0.03526296854483606
-0.0049124916923541945
-0.013673722496677402
-0.026165170872802235
-0.006335075862881375
0.005157113552257305
0.01884258406381758
-0.008676199584917148
0.07548064626532086
-0.02299355031559587
-0.06020666386600389
-0.06838157228162883
0.004553825660780503
-0.03201699612497589
-0.06115469422011804
-0.11186950974538368
0.03889804690646286
0.05378952516204908
-0.035477865401145746
-0.07284002746671663
-0.10995436491117468
0.03492545693839382
-0.05018380464637519
0.0961041726418848
-0.04999790722116992
0.041955428598932844
-0.07042556911469124
0.016502966847821425
-0.15828331986619212
-0.01338789092184476
0.04236153126708193
-0.13392259263423784
0.033322613592199825
-0.04033094132194106
0.020611053862795055
0.01657689023120154
0.022123841098209956
0.041807267817312005
0.04717254635906565
0.08390830305961561
-0.015764303949447816
-0.03457322141419179
-0.1361290741899259
0.00048389579089265944
0.024313547520146986
0.052699281609405325
0.02616718332607858
0.012886182522038573
-0.017152857227827167
-0.02393827035852457
-0.07464480017977247
-0.043813762768733694
-0.10259541363834974
0.00489798623433326
0.03277909592435534
-0.038941005557988864
0.0433004771259139
0.028306785464108086
-0.055821536892348145
0.07306918630878767
-0.013960195722263376
-0.016078872831718292
0.10752605486175308
0.5778723418188532
1.015087987673318
0.4860168227122655
0.130867253999921
-0.005659466655139426
-0.006835820569269795
0.0175397516356826
0.09712432484876873
-0.0032370122528400103
0.05103194535595121
0.033749819355891116
-0.0027446373336815137
0.08200766489408262
-0.059944509472840815
0.04224691803293182
-0.04088868823936761
-0.07648312929562517
0.04423261377014671
-0.026463437128112804
-0.09122878193556466
0.0889235670188752
-0.04519400597634912
0.010837362561007898
-0.05969774959738472
0.09856098486678312
-0.006798229283117331
0.07627161234289528
0.08043658442050246
0.07693598395778523
-0.066849516469879
0.062101612136419265
0.056364707243001605
0.044854414834796213
-0.04835507467556654
-0.09724509900988368
0.03016089290761146
-0.02101890761801562
-0.03723817132624032
0.04254721820434358
-0.020539043273043355
-0.03183977821530297
0.004264090077585434
0.061968758440705
-0.08629420729555436
-0.004029250686885159
-0.0523049582486842
-0.04284131383603344
-0.06049836005371535
0.007549737748569745
0.02731038796194973
-0.006776562014791383
0.10871815809347973
0.06360797148503258
0.08835021044515828
0.027782486587279245
-0.0043436004560674125
0.1436129452802559
0.0038970837781190726
-0.13841763489884587
0.05064550923738051
-0.07269959982850599
0.03852439502115579
-0.01108811851416278
0.0052092464798497206
-0.044108923564620206
-0.02241864504210635
-0.005172211471583835
-0.011653510565049074
0.007259163244732876
-0.03789681942416779
0.010369827260510474
-0.03774862853082099
0.03228053637120011
0.019605876355208135
-0.0024412794036456275
0.04975009548222638
-0.03314850982047794
-0.021611805959695793
0.0025011929418752724
-0.0032787527182441545
-0.017351091070131493
0.03767943991058577
-0.01885735883371266
-0.01680608822721986
-0.0426151186267076
-0.03245317810700774
0.05950449642399306
-0.03757105098308352
0.0594217033875067
-0.0041480851963180245
0.029411244109675362
-0.06309437884006013
-0.003945642667516701
-0.021871507720221707
-0.03282523201219288
-0.03671505505584751
-0.03563127657305796
0.08053555940821645
0.011303233624313819
0.00849813013388213
-0.06420249827351866
0.018652147365027266
0.0531884284051721
0.0027317764070101756
0.016465814304638688
-0.0012250562088235264
-0.06663550716942777
-0.01656148691219371
0.020128117826769956
-0.09768043474905307
0.0321832064356791
0.00648921678217706
-0.035258869519077266
0.07611443645925686
-0.012737996640738434
0.03731886052964163
0.031122111480126564
-0.0020534435341110543
0.01158064296617672
0.06340502654072258
0.020124822555206708
0.054908036236616914
0.02514108724814193
-0.022424722717292303
0.014773979637958613
0.007211832394975669
-0.04180607079422752
0.010045895396702663
-0.0032573879641831084
-0.03305512198800052
-0.08048241647550569
0.018362028967751954
-0.01077763463131407
-0.0440022960680743
0.032496509918553906
-0.037957354832194784
-0.01590284577886207
0.03922200237080281
-0.050220419377846194
-0.07137717074720609
-0.014286924803653539
0.031297671202192845
-0.0004323947500060645
-0.03898052664454106
0.07721938827704374
-0.01316699245236003
0.016709488557472493
0.04455524412917837
-0.03955912092473618
0.0738179875513005
0.00810342719187288
-0.03906944878508137
-0.028244250323307088
-0.0009014502618389589
0.08132408471209544
0.048306334319770085
0.03611557735111419
-0.0748064631705921
0.026908023374552295
0.030603245080773684
0.0037917536680333003
-0.038281347386739766
0.05585595848619418
0.0005280280835312683
-0.06058517213920642
-0.05655497094232557
0.03287190754713448
0.039616259430068725
-0.022328063945432918
-0.0027513426312540676
0.03110031153548151
-0.02223124029728941
0.07033212855788634
-0.1646438672019401
-0.044380809553070055
0.05099765324023481
0.06915087750288078
-0.00018906247855765817
-0.08017819035526812
-0.05034598198166845
0.013460999562965465
0.03723853900046104
-0.02777127078334009
0.03551895339390737
-0.02673717743140047
-0.03072128824373871
-0.025698732752607374
0.023143710524970162
-0.15740261840979872
-0.01906154337287365
-0.06108508608479855
0.06503502466487181
0.026297480909231504
-0.062183626225124744
0.06279389641760535
-0.036318508002979984
0.046448923493491695
-0.05932532255786221
-0.09786596820228582
0.05594414046572496
0.10628979226546345
0.032534594442169294
-0.07876482588994703
-0.02864166025884747
-0.07718064395948415
0.0695411486522713
0.17687294849718455
0.5475101419674868
1.0640626382023033
0.5314420527026057
0.07639874089671905
-0.044057558733233276
-0.0015112415107379866
-0.03207487826134205
0.019935551898863133
0.021652872665265045
0.036174995301834295
0.004481107093361274
0.0481133814101159
0.03355091381051364
0.042000538997970904
-0.1062792905376107
-0.0421153105023706
-0.030188199614734613
-0.03445176500556684
0.048458191233877894
0.037730398400309534
-0.06972712443916249
-0.002342585166291045
0.055809953117178956
0.005863410950531048
-0.0073107998477708845
0.16061320628703818
-0.014432452157184845
-0.022791134618547315
0.0361917364639026
0.004276410925608455
-0.07293953112808553
0.012914769938927116
0.013460614158962728
0.012365671289224299
-0.009000405904992653
0.08250824534307429
0.02291766762961637
-0.03295756345220562
-0.06604155775759837
0.004138830617406864
-0.03714337760314614
0.06976811574154924
-0.0002625278536068605
-0.03851835587669469
0.07406788925271461
-0.03920675230312806
0.05213315632777702
0.02100701834225263
-0.06509913842981323
-0.036155960159060814
0.06468764447363204
-0.06883554826320255
0.045717485967224664
0.022282277432211707
0.01181299597289966
-0.003859526483945798
-0.018380971536668542
0.04451292371670501
0.09089052591968352
0.030456658971540592
0.02569125778014201
0.07599829918605448
0.02002950007779431
-0.023096445232392078
0.028747305256456652
-0.019929856667492512
0.055238326512163295
0.021374307202112572
-0.11292870380544724
0.1043814527505707
0.05890123150812646
0.04338071111776647
-0.006933302401883394
0.00799394326551365
-0.04944336180764735
-0.06151233928748843
0.008714325769906524
-0.013080896061872155
0.01252991560447604
0.0027989307537391703
-0.1254916589695482
-0.04216710048085577
-0.04948307281059127
-0.03629135988141789
-0.023356097361156396
0.1020969656816278
-0.040295173555453215
-0.014174010747524255
-0.038465982260996956
-0.0864245862911641
0.02842552035845779
0.039570704375791625
-0.0009007713413845264
0.07255788681186177
0.07178097311993963
0.08466912628924006
0.05080960489605211
-0.03247201265649522
0.0013334144903945013
-0.09515010747336643
0.026578758736208942
-0.011877684152378333
0.04471071318473537
-0.02661689458142938
-0.08772152582031717
0.051309206323032576
-0.033375955509987225
0.04067903144178507
0.058791090528912404
0.07697265634612944
-0.03623673561380044
0.025638730917151683
0.04561975347487515
0.034344553550586215
0.019580938913696114
0.008819189278667105
0.0658431638212501
0.004918373431827315
-0.019225196854530623
-0.042764977635488005
-0.03333571139668118
0.12605759721721185
0.03876127201110991
0.0014863248925392541
0.01182882259597113
0.006333056127750214
0.11947059653901092
-0.046309325695370704
-0.028323488773119732
-0.02695806851225311
-0.023553471643792054
-0.06305953488879243
0.053901729678556436
-0.0026938580624556873
0.08284295508266043
0.028933021168799585
-0.025498874251933895
-8.76164808222427e-05
0.0012558452464798558
0.07004882395245983
0.11132786572517771
0.022747326185295482
0.09740395577891392
-0.08621173646018614
-0.027839205282993065
0.01913641126006481
-0.04457078548480865
0.1005035381189135
0.028595026246262895
0.041673688549098836
-0.012876431401950493
-0.06630090817058862
-0.036215993251130334
0.0035725307341727165
0.012749129371462126
-0.047140862715446014
0.053886276313676956
-0.003782220305127118
-0.06360125554536784
0.025855904078382702
-0.08580589147626416
-0.036536290573463685
0.012519511342253282
0.0017813071967955473
-0.03192187642352315
-0.006831143391723942
0.10824585463576307
0.0167497951398663
0.019053562443836727
-0.07694759720941644
-0.05527695470914127
-0.026389632609552533
-0.0024725361823789097
-0.003035198887520222
0.016358025900638475
0.013151779952374827
0.011521895564270156
-0.06708751833245347
-0.0007620276346117235
-0.11356972283375416
-0.010084202272803676
0.016493016488149208
0.0022098615048321076
0.09807828475061704
0.02988200051837053
-0.04216317163005093
0.003739014568484768
0.013589889487456309
0.005407481398444002
0.0801821888346415
-0.00847620170932481
0.024623282164279683
-0.07873835184593829
0.09679450767323322
0.039129542832978544
-0.02091373601275337
0.01196438965730113
0.03880173002893488
-0.01693586965334098
0.03365783000366975
-0.03177555318083577
-0.05560426166745158
0.11988467873318032
0.07498427464853798
0.07761555534876927
0.042848929421546
0.5102419702384154
1.0386768712360865
0.4438850699030558
0.06620887425538577
-0.033771907202783814
0.00020281396478092958
-0.0506194992933468
-0.11885213238010402
0.06185596930889401
-0.04051709441489057
0.059194180972337244
-0.05206998617889524
0.08977777846679458
0.04696066108078806
-0.0528947508198058
-0.0751024251327368
-0.02625080680060546
0.0028912218039281548
0.08724253632515871
-0.024127313548483
0.03763042910166087
-0.014404573122853193
-0.005631414046797803
-0.049640730631917845
-0.00519059330174198
-0.03795893914301358
0.02533181770236198
-0.04574101954262778
-0.0045791516772542935
0.006742669689638147
0.12242396914851494
0.01189916655421917
0.054503436248305503
0.05652527842976429
0.07003059833126798
-0.026822202471038906
-0.005815009652784601
0.0011662443021916132
0.08068082385067227
0.04744471676099718
-0.06847035442804936
-0.03252168359841491
-0.019375145207466117
-0.0016183345025294702
0.08705887314910948
-0.011449439381823925
-0.014032535087986756
0.061782624061581276
-0.0719529530489025
0.013147677073292355
-0.06885567067317817
0.010839462112179949
-0.012364287767564569
-0.04425661491852534
-0.017586924395784423
-0.05678323541771649
0.013200937694677416
-0.017456339965121585
0.033741472868009485
0.021604751970561942
0.03079018791483086
-0.10656609247058074
0.0502438425711261
0.0375975970100135
-0.0014459255689993045
0.09587797490890615
0.006094594518176363
0.030745585406283655
0.06686058551210354
0.03674310431299969
-0.06024925106885437
0.012912712914970906
0.06749698638159306
-0.04391955971518757
-0.030279688405333478
0.014213029276280304
0.023163552608873237
-0.013832640249030866
-0.09520719669879522
-0.06300420528363133
0.004879639108857962
-0.020038281524162104
-0.050854910464912396
-0.01893511787053742
0.01271698955052879
-0.013850595726968735
0.03278205170034961
-0.04548155160854303
-0.034894629978509915
0.03048939095717336
0.035196975825581275
-0.04306926738840533
0.026568447647627197
-0.0404967523932383
0.017090945306110408
0.017611501424779737
0.020547657489010326
-0.029902015699432946
0.05933087434872704
-0.06676292285561242
0.045635260855723475
0.06710159226491579
-0.07261969723664384
0.011499217283123597
-0.021887717908836174
0.00020205233658498572
0.05181865433447058
0.06462860709128136
-0.017366148774337117
-0.01498075583071657
0.05674746716041314
-0.04739827887705817
0.016600486252052623
0.009518911749678602
0.01097668071593623
-0.052189699115238575
-0.06694212544893705
-0.02362982528449702
0.022339763117865567
0.04390982915554018
0.06809319923034204
-0.038813672757591136
-0.019178234221025603
0.05562683117004076
0.005573541910408292
0.0008386940733333718
-0.0732017089790658
-0.0340477734618864
-0.0063288945419261045
0.05959143760326944
-0.00940560133351173
0.008561689163313345
0.005849426974985386
0.012480049293774413
-0.08929132203843908
-0.07105965593652837
0.025233669763373746
0.06253481728141762
0.009810185220400502
0.04575457680078876
-0.045835358588856
0.015355638670252737
-0.0018302246014262763
0.024452535791361293
-0.039795220633492
-0.017780549918883636
0.03466420590832083
0.021017815848040036
-0.021929758136871542
-0.035200335608094824
-0.003924899676576018
-0.02177637731607734
-0.03545856824206302
0.014588283290900667
0.01867797391991453
-0.003000908519736247
0.04326527654724808
0.012724737778918572
-0.006720987879893396
-0.006539871599073391
-0.045812292937746114
0.033256447964016625
0.008813714306026612
-0.05526485603279016
-0.11178616538991315
0.02651498993772324
-0.09567687587658776
-0.014149891015707057
-0.03204174163342523
0.025080616691058977
-0.039039147381748934
0.11043084043166827
0.05293412532401162
-0.0060721482277865816
-0.016055490116672715
-0.09002283719829117
0.08207714214979214
0.013632918412837904
-0.04974406216820342
0.0751308264713475
-0.06263710478188472
-0.023897348572483885
-0.046999881795329344
-0.01370658773566421
-0.06201026519564017
-0.05492606447544707
-0.09786605717915671
-0.02605356605535541
-0.04155679813579419
-0.016400248251155956
-0.033826101231548986
0.097105273839919
0.017772300467672125
-0.025746707185989932
-0.07047050123582857
-0.013772260360310151
-0.01293691290693855
0.0669047259475997
0.011607624660467714
0.12378698109632645
-0.0852191707374253
-0.023897024479258525
-0.019895251491600492
0.030949098318081708
-0.006535211695113748
0.013163832138223495
-0.011836776376434925
-0.049262176125443535
-0.07168790133391784
0.07373957955329642
-0.014085223855642351
0.05726623681688471
-0.08970048036505972
0.06317440810180677
0.07181633820444414
-0.024581906240173822
0.06076878665357457
0.5408854178621393
1.0296815981232696
0.5831022110245191
0.06843992373202618
-0.06252003578565826
-0.08717374992855013
-0.04609998067483204
0.03926083211015231
0.030179039742325504
0.07754995889739853
-0.0016502266292233378
0.04564513894069509
-0.029415481431208965
0.06870860611277028
-0.011419558843446217
0.037163467814941585
0.0008518693374008834
0.0448485521513019
0.01356490374048108
0.008272709647031496
-0.02165589146081083
0.0586009134374548
0.11683082338347538
0.013641945328731834
-0.02849905411414609
0.09073644529142913
0.04424756842838647
-0.043551042021469005
0.10780561088053404
0.04412733853220826
0.06474946842794564
-0.07234946920649651
-0.049146567555601775
0.053599400542307635
0.02407574996104016
-0.06998447010050389
0.042221752976244364
0.04540765709341401
-0.11306207968334823
0.09907776257739845
0.1174102468063115
0.06976228220141399
-0.05221579900512457
0.00392852537982238
-0.04589463478578268
-0.09686899253707278
0.01688760102915834
0.015579671358506676
0.05747427530245748
-0.13059099195574558
0.08445893115232
0.016485451062550237
0.0443387547047443
-0.01289959105513128
0.011033062642663533
0.04227233541286551
0.04168215392164016
-0.011916617895872497
-0.063314326701622
-0.025773603261627743
-0.09832990660088822
0.01063412946081795
0.04182646022682205
-0.07316644890322463
0.06182789841736641
-0.013387681836949026
0.037044061567139276
0.030959071180193892
-0.04405441554772538
0.06358328824023017
0.019553748829127915
-0.005414733229989279
0.0499641834764174
0.0891218397636724
0.0424573466520801
-0.010516460756859794
0.07776546252141502
0.0339079474071332
0.017134878912671285
-0.03541230514466834
0.05027054547118298
0.05124529677550882
0.009438425566611506
0.024775680087101865
0.041099954521421886
-0.004752138051480281
0.0992323949531015
0.048167387268354726
-0.026080503331737327
0.005758078640147618
0.04524827013416047
-0.03781715725244217
-0.013346601619902532
0.09192393853112862
-0.010152144657327179
0.015165069016636374
-0.007500271582735713
-0.07488542944821433
0.019195869513093385
-0.010346992488971113
-0.012050880984376643
0.03129015879048809
-0.0536494045307791
-0.004105645023670347
0.07803648414769372
-0.011687928406020304
-0.030880133001983265
0.08193212656621145
-0.01670186710821774
0.1012654213486412
-0.07491569247806687
0.020660738558674244
-0.041350465274593205
0.05027259609761974
0.0868295449475027
0.0006342788352843422
-0.0733343649154363
0.06103831612418317
-0.015257755148695635
0.03141449178375037
-0.03924226749493995
0.02813523174689697
-0.04403734617116494
-0.048588215115411185
0.0532217399491948
-0.01844505453041668
-0.009713608259270846
-0.05580290256604721
-0.04659989404308599
-0.0516372033544828
0.051332804635402955
0.09035097949687249
-0.08708829158816934
-0.06888145154314497
-0.00913080402329733
0.02915508831627991
0.03038400286507156
-0.0004647065462629312
-0.10309047887394696
0.012003995535689193
0.0073128063300002145
-0.03663878079965692
0.05272641368137898
0.009530476180384509
0.07304953940456725
-0.04692484560014456
0.09571712573795543
-0.04065030553977775
0.06949709160279621
0.035356897774890934
0.048440001084272134
-0.05443625190275575
-0.020335463721819432
0.08043094255588151
0.05538257678831421
0.09511229990904208
0.038166588459279435
-0.04470538099628974
-0.0002589717787476173
0.0078911186537827
0.0517189597475087
0.049675260159130014
0.09490038696149371
0.10431593376356163
0.0016795311224475748
0.014861106836474536
0.05229948580821282
0.04933308910493481
0.0016117607554611982
-0.04168601010716361
-0.018686546077493617
-0.050101132401529525
0.08577535485903089
-0.02642563841916685
0.05655270236630575
-0.016858815655000168
0.02174922167224959
0.004252804214181257
-0.04457420089702438
0.08201895666768533
-0.006921145308203228
-0.004638788645237879
-0.03939605305726834
-0.033714621355392896
-0.041060322666055894
0.009152029095658796
0.022490267531752747
-0.07200307858393583
0.08040118856265586
0.003076496498256075
-0.021374733055658963
-0.07890392357307713
-0.08444294055072533
-0.060257884142673926
0.026689615854918455
0.006894759799296786
-0.031325534312507945
-0.12904775047437114
-0.05080971058923628
-0.05454327482090583
-0.004205538453397225
-0.023556304778981282
0.010224422239320203
0.021939489971636413
0.04569354936863633
-0.03776116917891457
-0.07497435020424653
-0.062280429208771776
0.011649704326556626
0.0027015389485663143
-0.0781636452028381
-0.003903630689047146
0.03063554053523347
0.11765922675982152
0.5336751938346099
1.0322960279599667
0.48962061516516864
0.12140378064967683
0.06983476322557734
-0.032009483447485686
-0.08910815118105356
-0.05529601483741277
-0.05876114008406679
0.03512546352559408
-0.026523882796706866
0.06296570801532285
-0.027688519219160254
-0.059377291981045625
-0.029928050685447058
0.018425214010969304
0.06430250948120196
-0.028976681417845557
-0.027967841494265278
0.04124987588496723
0.05810814011786683
-0.0027813566865941145
0.12394752944879193
-0.015812572684719563
-0.010378683783492914
-0.15104885592605133
-0.0265788608397046
0.02773736455649055
0.034641093660410474
0.0035640879690581164
0.08010663789745794
0.027435448143113075
0.0012743941364015167
0.0459394939147102
-0.05986051820630728
-0.055479429852795636
-0.0008799323890712984
-0.03647756637213316
-0.02020970079148758
0.09177727768171186
0.0018649551564710863
-0.026377926421116894
-0.005062451136212158
-0.07296183010300754
-0.0674837526724847
0.005841698984381913
-0.037372439319250515
-0.04240903773095964
-0.08562160971284154
0.022420551571622618
-0.05636042617961241
-0.04972103555275549
0.04874243032841642
0.11732566025693825
0.05171834915550913
0.024009461077506646
-0.021630448019773506
-0.011442718762572704
-0.1020600873656816
-0.11180160906629458
0.022608304697793676
0.023331582777354472
-0.10148425302164106
0.0029944032834430083
-0.05582089357857672
-0.0057762919932791675
0.015278829799563768
0.017404134224567974
-0.07054111800939515
-0.05253835300744267
-0.012069912541356717
0.013426198290264965
-0.034720434723202624
0.03923418990373115
0.03375727529141191
-0.06911873093797129
-0.07296131374723487
-0.06163779390254231
0.04684312247883829
-0.07469661632620754
0.009315283009607827
0.13937294198750366
-0.12030397748864013
-0.006646875244821201
-0.03621108539151406
-0.019343346451454194
-0.015871703935357015
-0.09816391965477311
-0.0017325621103551484
-0.06352884880501156
-0.07320796229113102
0.07509386517824196
-0.06284597965198141
0.045083874860743285
0.023875790318440338
0.07411248654740442
-0.02883443823838648
0.11157813570732569
0.06073192683095274
0.036939285019113095
0.01784682438651587
0.02027698841118683
-0.02986623905856922
-0.11800530087796741
0.03389341465640641
-0.03591987697442192
0.07732178590907256
-0.06879692037573586
-0.013241873292964926
0.01357773947505412
0.03072662706017709
-0.07810959112629534
0.018261543143705188
0.0003990448996334893
-0.05619846669639918
-0.06587772888054853
-0.05237756374178831
0.030513624966179622
-0.0822112101189292
0.12005367930960074
-0.06339865809342972
0.06803186658482778
-0.016539734813861087
-0.028537655694784964
0.0050763569298889494
-0.09690860675716946
-0.0198517113581015
0.02200762236572212
0.10363668706640171
-0.018127652331189164
0.034252681487525104
0.0049690293638507054
-0.015000928374564227
0.08998946452970025
0.018555720889994767
0.048062013426393456
0.03551441934406507
-0.07171796048431554
0.028485748602078243
-0.029316542626476053
0.016023182960285005
0.056867958518446476
-0.0012764289488438527
-0.036766643349148156
0.0013351741115976271
0.020833722416112362
0.019687586381695783
0.028716837897141967
0.038131005565608486
-0.01713536978391567
-0.0381038261848526
-0.055095379753950305
-0.10592489728743536
-0.0731369950647977
-0.0484077865701514
-0.013258800354390067
-0.06098100355028585
-0.04838667062279022
0.07968593741620054
0.08105077071277339
-0.07155870158916566
-0.01668241447385969
0.03799591544173058
0.08707599244243326
0.04770081550158279
-0.02770811175102214
-0.044108017145207755
0.027463867481463945
0.02298993654865008
-0.07190876586607788
-0.042759031402973546
-0.014022100364450783
0.02380988049139325
0.01029434563330687
-0.024677718618592238
-0.03299047496052274
-0.0024053278894701972
0.0351140221089623
-0.06861793950739496
0.010085169043368819
-0.011443913804061808
0.02715699434467348
-0.027293348160056182
-0.07666225112541816
-0.035403349463548
-0.014105123030727371
-0.02539484653779017
0.026222332841492998
-0.041391707192314456
-0.01337052328164097
0.030837938978074006
0.017853619843887957
0.010284157452954265
0.0034107232920249815
0.013835082935666904
-0.023066205937502457
0.07451384162785794
-0.00018653094964430803
-0.01756492340842501
0.1043664039585359
-0.03153504790999746
0.06640630940496202
0.5467931168543998
0.9249372074716845
0.42639556461238676
0.04959244840857277
-0.027581407559184368
-0.01871828568350951
0.03008210897897244
-0.10050725707882346
-0.07469035528819092
-0.06387818271000471
0.04898155626204499
0.08102632332321662
-0.027540529683219246
0.125155994919224
0.028314505894364156
-0.05219015364554819
-0.034800084158183725
0.08147812502808827
-0.04449598908190613
-0.030062906119179323
0.04167863039827337
-0.012977953284050462
0.06314463756363393
-0.025743312693960838
-0.006591957686617769
-0.0691062631658588
-0.009345897498290996
0.02283479532295256
-0.03975033365424687
0.10987026454649905
0.05902811100784491
-0.025238757676400204
-0.05302040867844602
0.01474848759841304
0.0005061084178767319
-0.019653498554745286
-0.033661065126790866
-0.015718501249830704
-0.10876837072225526
-0.016667981241705567
-0.037653000488988335
0.02131022294865731
-0.024296114475143467
0.008473616574986133
-0.007849368147858209
0.020303151280439143
0.07197419266004
-0.00592715036229065
0.0322281313088808
0.023143422685562198
-0.01750007758586222
0.03165151918505865
0.008764243428744494
-0.06595701547392228
0.01767356371734632
-0.03726887101643438
0.04952526881638503
-0.033433655125062675
-0.042017532290871656
-0.05227724813295481
0.021734821130164693
-0.031154824574952708
0.023177476726368343
-0.11094094484833217
0.003031081600439035
-0.00801848890883628
-0.0888922383055184
-0.060559390603515506
-0.0262103444236314
0.011300565181370088
-0.020373544912012667
-0.05998649017893477
-0.02383987410885076
-0.04028287808010118
0.10396698038285886
-0.008600232899731738
0.04280544032786066
-0.06927740449872541
-0.043652382894210064
0.011864228111735417
-0.041794253353852485
-0.02136758069227175
0.0566398708196888
-0.027340112098462217
-0.04523571602487168
0.033635450119768116
-0.03988027642732108
0.05467993851688997
0.017062768133071768
0.04468939093183445
0.020295604000965736
-0.07967990079781204
0.005420569186747668
0.15198380484576088
0.07702386100536444
0.12579026005409608
-0.042435386699768145
0.03045437509197227
0.0405678350615996
-0.016959949180383644
0.05199159668784653
-0.040250440477432765
-0.08192871172125525
-0.01518953168074589
0.045667002902041974
-0.0680528396494695
0.010044277225624905
-0.1425089645876589
-0.009591395545186322
0.048116640302183156
0.029408914587947022
-0.07258986131923846
0.017923686289276295
0.06576646113785808
0.00905796871725466
-0.02812109449362586
0.06343352609501483
0.03397007885832826
0.01104448549285042
0.03441026088317067
-0.043774637520997604
0.031295394192158245
-0.06722741800268373
-0.0714562492527985
-0.007789825858357444
0.0017538575009802809
-0.0196546471433104
-0.029034302825130517
-0.012013759009676751
-0.022908570757030487
-0.02715531622256184
0.02719900729204382
-0.14553826378756332
-0.04536887950402227
0.04503502261753302
-0.05266744140710727
-0.007366798727209217
0.01994991853183664
-0.0023512967719703896
0.032772586513168986
-0.051658263174300625
0.013430994113463286
0.03378653253966925
-0.013579798785058364
-0.051240003036965236
0.006481406299197291
-0.021809893350733762
-0.03676041994918141
-0.006057014707685771
-0.033627204239781716
-0.03774065552575963
0.025122508688374207
0.003137797096240986
0.00826458608759246
0.02431766443467912
-0.033566281386059264
-0.028498029012866556
0.0015682420101327662
0.007762978548371953
-0.05856047856978135
-0.0027209610145177763
-0.03258162637582098
-0.036586858531948256
-0.02609310397906859
-0.030289953016292295
-0.0076018542450325775
-0.08613477697637988
0.001374844681453603
-0.0392722540728468
0.02429737506385389
-0.0422820986362357
0.0373053006462309
0.010856456775821163
0.07536190919300277
-0.01851521591937549
-0.02149135784348142
0.07230392387147722
-0.03892408065788869
0.05865000326164556
-0.01009805293442908
-0.07490082535783298
0.015146045364812278
-0.020806514800872686
-0.0009448634057121165
-0.093478137737741
0.0543671795956057
-0.0042502134853443976
-0.020910298285414245
0.038874069275523115
-0.07878557991893709
-0.06267970485777681
-0.00583103152832613
-0.0730842291748255
-0.04645547601742958
0.06895282349455693
0.062425906505591135
0.015578776851606213
0.001779196878603033
-0.13069843069163584
-0.000955922023883817
-0.023392938520440745
-0.03868652842961842
0.0977328489241875
0.4583896077206594
1.0086041316305403
0.4482781715782632
0.14819716017462506
0.018213372214359716
-0.02530047678236859
-0.01707444545476226
0.031213448813524777
0.028428825083999944
-0.05394941616140375
-0.034864889582041564
0.0501025778907273
0.002973448045940294
-0.0947259232853534
0.0010398490820024988
0.05689466875394228
0.010796211372939166
0.010717979239259939
0.022389714270794253
0.057532083766969416
0.050222617678011186
-0.02383660631477419
0.024597502795635717
-0.027322619558612978
0.03217978680016208
0.053865215020427085
-0.03872427949152428
-0.006575376664922038
-0.004606957814188462
-0.027517042741287096
0.004772205406506597
-0.07192338966070036
0.047855809116901155
0.05599341078971453
0.01092760280515693
-0.0551534296609322
0.07418257081130197
-0.07783035673063636
-0.013947637509043828
-0.000393128544944457
-0.027935028880088694
-0.04177016139395869
0.015588694875050458
0.010888302924169797
0.09365808004114132
0.04601822758779251
0.016716082269481566
0.008882070377586537
0.09788613658344947
0.045902710212188766
-0.0011965409317763295
0.0001440321280010239
-0.07911970589903922
-0.011475229924355205
0.011900930828564936
-0.004914262853552168
0.0448414591844828
0.0327665096822432
-0.030665980852160615
-0.047280501004147865
0.013638148663963973
0.0365460226991611
0.01699376800743724
0.08505853053268254
0.10149922747993917
0.09629123991342585
-0.03295572550224778
-0.061340850034128064
-0.037449590365537286
-0.06273493361949087
0.01645493520163881
0.037771650422611935
0.05992430172298999
0.06593425908043127
0.009920828455211746
0.013134177773608376
-0.017431376364526574
0.05251078798405238
-0.007635654673860227
-0.03364727499929534
-0.04289164098708776
0.006369907309924844
0.05878648695366058
0.02285553070765733
-0.00030742444739834064
0.05396442964169408
-0.018420428837675126
-0.07173096947076464
-0.05461000051082513
-0.0365209427872231
-0.04130532530812491
0.031124603455874224
-0.03502095952436029
-0.09698276320416535
-0.013717854398095121
-0.01838764210981288
0.0003300590144571861
-0.0990217955350627
0.005141286871801936
-0.020982656984076645
0.08305996311440272
0.004344636033856684
-0.042993401397805706
-0.10824713661736923
0.06638724817676737
0.0736309207916399
0.002323414991075561
0.06663320238817358
-0.002306823944738628
0.06846154270536302
0.006599304326061374
-0.0007341895975152814
0.030861455586721983
0.014244888278927337
-0.04091336090805653
0.019558342285670154
0.01764232978811149
0.01821016173732927
0.07494911435429295
-0.020223918083907007
0.010464406913616671
-0.008267816405703518
0.004930441342868436
0.005135927570201669
0.05269344782333693
0.030047762296501985
-0.029453660646551562
-0.02388698163118359
-0.00748417795563627
0.07879491481483561
-0.04838971497972139
0.002572803008326124
0.039330502222511526
-0.032293951070291115
0.056712336277186526
-0.015469059942063566
-0.019682222132621992
-0.0861493521041555
-0.027471967703439543
0.0027218581789781784
-0.0830455279599342
-0.08078579649292264
0.05931766172771699
0.03162346052026478
-0.05115679977342783
-0.0672372150337219
-0.04538143362955133
-0.013729981203430991
0.026713489229860457
-0.09339812347478144
0.0848081464166835
-0.010857033230251336
-0.024039242332003163
-0.006310777411109057
0.02071497358539949
-0.027667171756791314
0.03012240195380253
0.04809986660576705
0.07027897072022053
0.017067468120241545
0.08370428038752781
-0.029640374241946005
-0.07944524879468007
0.016588928547576334
0.016569964136521342
-0.03388376073227183
-0.12506379139655463
-0.01808958603758321
0.0935932300465447
-1.1203603781878038e-05
0.018934784260573465
0.029604756360272128
0.030210177249052502
0.051701953612851154
-0.0051676256417391014
0.08271872700218
-0.027698453596886365
0.05953921372386687
-0.07468867092083463
0.03745592537567214
-0.009594457975798068
0.05768984084994329
0.031185216895654136
-0.06092668690115686
-0.015325244340594697
-0.0010283558606920477
0.034695770336532754
-0.00016297233012165093
-0.05961765607603845
-0.053884385432294374
0.061482666210321626
-0.0390105133766458
0.04130577308496504
0.056822549017623715
0.03192907951203699
0.04164017241810096
0.0019165505058147646
-0.024443674570832435
0.01094519106515636
0.02426796336322784
-0.008438690639098552
0.006158832853729776
0.0711309203942355
0.02595957364985657
0.009533191463976139
-0.03879055256033594
0.06739713719591753
0.01711413950856282
0.14160301083534324
-0.04210076199127821
-0.12497881896504417
0.057173073759185934
0.021890786455130106
0.019411601806664812
-0.014672040974901707
-0.02240406247565932
-0.021695194825946923
0.5750188250370721
0.9839257183001742
0.4413149524311253
0.14504357553456268
-0.030802752656815965
0.0784141620187865
0.00012673355088772687
0.02755033829939246
-0.0036304996433771442
0.11251225540431067
0.03154042607834625
-0.086179213760223
-0.03225486018614282
-0.04454306097994168
-0.08171616398934627
0.009673924620072768
-0.12878695964746392
0.002185201965949417
0.06386629853629734
0.06744044810390717
0.034241551413278025
0.022089248313901085
0.006593797369652639
-0.053971238278571566
0.04179018353463863
0.04390092229448841
-0.010059727852414505
-0.05086930908861555
0.05579006347317237
-0.022607129457577594
-0.09609172905364156
-0.04655257691512143
-0.04125268598064909
-0.0336329940537604
0.02131074913456052
-0.11366822973561508
0.08601928516513856
-0.030575308536444724
-0.0019083341332468706
-0.014613253172599292
0.043007495811691956
0.026953448141748743
0.0488714365811379
-0.04185705945909627
0.042660559887159166
0.003645843306862148
-0.0005468016139325979
-0.012309549677749604
-0.023099581651096386
0.04836293879126518
0.06279149409768682
0.0016309720014813054
0.015999793660595046
0.04819687278411606
0.07885288859477518
0.04288674621502188
-0.07132161148841536
-0.13045921873592628
0.01846041050167566
-0.0928533834809766
-0.011896549753733342
-0.02091246086471244
-0.03423204822545489
0.06343164073506269
-0.012678344313088877
0.09965933319049208
0.07787103769745206
0.05779650859444348
-0.009535364097960457
0.03717990226474529
0.005114495605146781
0.08143915144323705
-0.01915528767204521
-0.024788393007473715
0.033803168019847854
0.028997491624089516
0.0632455807513568
-0.050296823388391414
0.007960050716199844
-0.05863604401712558
0.029065290086489712
-0.05593401661273082
-0.014287752533161455
-0.015529810044545789
0.10501890317056257
-0.03914678745270339
-0.0561650455380108
-0.010384577849041059
-0.01591169413540056
0.03679452513495375
0.09284304275607952
-0.05716333618603932
-0.058642004674460395
0.0012909326004498303
0.11966847065442279
0.027108759321195025
-0.02336653735227321
-0.011896555026031411
0.0269723099316535
0.05741644714932839
0.04586579362659181
-0.02842090337402106
-0.031641157454756416
-0.0017410290146251915
-0.06920764252229658
-0.04454951297526833
0.062215261523519576
-0.024631794656073163
-0.017241926793656447
-0.05493235901968509
-0.09070206448844324
-0.044292879908169526
0.011959004604448872
0.07877322910698438
-0.005824157475398977
0.01759032201338939
0.03058159962579242
0.034083495428332944
-0.006253206998651857
0.0033514271450400274
0.03208879253260207
0.09507402640528537
-0.021567866119950752
0.11836492342843774
-0.019378286951542
-0.059164341292194444
0.016399212905554527
0.03249641515032368
-0.04152507487154222
-0.05777820596755624
0.007685073459034107
-0.0018974201780515038
-0.006697747847885015
-0.03494279386460005
-0.0013442772889451274
0.048086701036947066
-0.011813879056218302
-0.08271436398788597
-0.05624175750025415
-0.010947812692614453
-0.013006506772029547
-0.01902566561913536
0.15038036487680434
0.058555843159486747
-0.05639016867620553
0.00990466674071803
0.07913067246940615
0.036505031953146104
0.07862754056377826
-0.038972538630588666
0.07221125289798268
0.030822475511048327
0.08000763931982573
0.001470136509358331
-0.012647326742074416
-0.12187801574200462
0.04654121605155626
-0.017001847874503696
-0.060771469522517135
0.08547230097451636
0.060953717715158645
0.032648968834126456
0.005353172181329697
0.07057005947990608
-0.11099015459794688
-0.010229188922497051
0.016698723044615588
-0.09400200949792915
-0.0315727894049648
-0.00911272763732063
-0.08284351755508183
0.06658229993538647
0.0023596175233329504
0.08013276932059699
0.026696838811505946
0.07992778616508488
-0.0041625018087766905
0.00406233459417059
-0.09342381182749451
0.016645929710884213
-0.07471478925406771
0.02248744767016904
0.009469214279759696
-0.08160044865405057
0.04167835608719424
-0.08362063992608394
0.00021472383303973468
0.01178783657939985
-0.03155999960401312
0.11540543502062733
-0.038613653428113494
-0.0091547894384425
-0.0749639826832357
0.08016820351581443
-0.044735910212289315
0.1247940402615456
0.47155421612906745
1.0228172843532612
0.4565402064198161
0.0670763455343158
-0.05553430728730385
0.04431719266555384
-0.07381827675515755
-0.0063923151744016225
-0.07632681631529893
-0.04247797892841374
0.004974029970275429
0.04083301891613939
-0.004145258305138431
0.010568253249402373
0.023104708439342685
-0.032296928697960275
-0.026386506369616078
-0.07930982660959182
-0.01516360741431058
0.0628439509014245
-0.02303050191076995
0.026918679776018035
0.08269736351565021
-0.044948353498212856
-0.08020379336648305
-0.0619895257661757
-0.006670028454940181
0.023156684003180224
0.07371957682811876
-0.03288866499226415
-0.0358154429699386
-0.07715523483116628
-0.09099640099127065
0.004184051127568094
-0.015430495764069893
0.015327902169956095
0.08572095433164272
0.0004910283626885624
-0.02065277156745315
0.013322521688045465
0.0827173129793341
-0.03525918911292071
0.0013778491606169275
0.040519977332919725
0.040436716321690436
0.08255598791780125
-0.019989709302028785
-0.039227805402630614
0.1129968118443585
0.015380708575907124
-0.009355993918973416
0.00295278208436022
0.027797403270901327
-0.0534159995743525
-0.06926079192435765
-0.0027217443495944245
-0.002462304847602969
-0.0704161431965231
0.06011354377873453
0.07967327891934389
-0.013969367549321291
-0.10489999747338481
-0.11462909451620462
0.06513383001860953
-0.00495176359560031
-0.005602826253118468
-0.02989002543022412
0.001727945138161738
-0.02082607512816574
-0.010794697183409916
-0.008291500810474809
-0.07756447041567557
-0.0074639746464149614
0.00999332023851076
0.03750957911691022
-0.01025402827891208
-0.060797930543349366
-0.07571763561791671
-0.06931788709138312
-0.046694563527215446
0.026289494502213413
-0.062468851335725654
0.037925518203587166
-0.061600019076667956
-0.011615772894807879
0.12197425476228159
0.02174333899725668
0.022213326459004968
0.04134681095056159
0.06030562973020535
-0.006322876872454398
-0.020334774809014668
-0.10945541245730483
-0.07928341167743827
0.008641112908477886
0.0715586127379269
-0.09315693359175602
-0.04011950072664794
-0.04709642601050848
-0.0021944105294858705
-0.012637050431497954
0.09106889873596385
-0.05714278477803902
0.041344106119198115
-0.04415147081956435
-0.04134115963421805
-0.03821378531719137
0.004631793587674584
0.039186847237021205
-0.07862038090668734
-0.03546600128289896
-0.002542262726904292
-0.008685514170242414
0.004099204797510081
0.08418381533652804
-0.0232662794867005
0.01371268840731455
0.03520469599002052
-0.02737113194702492
0.06799719841629606
0.03156848508408891
-0.005887687133402774
0.024748996556868814
-0.03631559604354656
-0.002303935472800549
-0.02301412911515241
-0.0815086596234374
0.05479438593874772
0.024023195757083324
0.007728352101572651
0.08612784825961206
-0.004346717441159455
-0.09125846875251169
