ecg
0.05354233571022136
0.004440289982317622
-0.008154621905529597
-0.08715335290635702
-0.012431937515426414
0.06336963657288328
0.09935059725698643
0.02828364402414409
0.05446934384751343
-0.047037155144527
0.035231002329628204
-0.07113244629098409
0.023277924654389846
0.1421343697952486
-0.04178359771549382
0.030576481995890525
0.022647860635791953
-0.0195218033384349
0.016120893289820123
0.01276896840008644
-0.05282195901867817
0.09954851907852487
0.02944705163302096
0.06007876390325767
0.0006863959388610975
0.005110903049765049
-0.004236588889722497
0.06065861117527609
-0.025857088754883174
-0.039408495548174445
0.12159908900418247
0.011755277368601276
-0.076281350957109
-0.0003375235635184184
-0.029449593466471215
-0.08281632012504814
-0.02423787512172403
0.0745098072834044
-0.04421812690865515
-0.0432718635961633
0.02363594088764291
-0.059704796584964
-0.05210591895649297
0.036879486821037394
0.01508434099831099
-0.009741213698139302
0.003057355463308478
0.023686212288751042
-0.009215465989258822
0.040689703365576174
-0.024516734646424766
0.07761762077569712
-0.005395727101628306
-0.029688115465504646
0.11240572499128312
0.06271266434855355
-0.009309535551142075
0.0206068663000724
0.07444445044449328
0.06105461833956001
0.029343253757731405
0.07023849805727465
-0.08445240709744223
-0.0010190516935927158
0.09152309977367117
0.078442703410781
-0.030167743172070733
0.023346327809145827
0.01295289065566885
-0.08457972999250525
-0.10277460355143475
-0.05352904081032837
-0.019633716868465666
0.03216095374427149
0.09060177983631224
-0.024702312269483884
-0.1107978251359178
-0.03106935511540327
0.07261714805925819
0.016327285795876632
-0.08586676380426761
0.10148899106327654
0.011017649158485583
-0.03854511230660441
-0.051135592923113905
0.04724227277042431
0.0030604694132174786
0.03550413242688615
-0.009135270108316053
-0.03449078126191091
0.008646301990828076
-0.0945771032440924
-0.0664007228077506
0.07088158742548448
0.028246407151449146
-0.01985340018913403
-0.019945208576188783
-0.06852019723826706
0.02985616998138902
-0.041664901193900275
-0.029639037011988098
0.08823447678091675
0.09734145220210028
0.05793577061187819
-0.088154199571668
0.09706795084158365
0.09791891827940338
-0.07132137449877506
-0.022113961905953376
-0.008588994155094426
0.008546273121604758
0.010802004223492648
-0.005923781712685078
-0.029606514005821295
0.003553843141481354
-0.10479232461737079
-0.049000041061562465
-0.03612389942856749
-0.024354115266014012
0.05906910737041298
-0.002284077205671757
-0.007976139145212016
-0.06530770039176335
-0.00920515556135326
0.00236492765673001
0.06422938267865488
-0.014405141419015173
0.07235290539797765
-0.08821490340697996
-0.07626836146325222
0.019641877953265958
-0.041439687840593424
0.015472518959618084
0.037641750834961414
0.007151929581145218
0.019313907030441488
-0.018138663130952665
0.0018344994336974892
-0.06805764685978795
0.01593797119581145
0.0029151286471899196
0.07163776361472413
-0.04457517139078136
0.08011203965444995
0.026476544118590597
0.08376536881467357
-0.03018575914675686
-0.06858191669313433
0.09367581567938359
0.026111886039054212
-0.023130782534580615
-0.025742394111818973
0.014060475537159021
-0.059918137949753626
-0.07457644394758996
0.0613912638778522
0.014279903146579925
0.10490280174027307
0.010153384260880388
-0.038817031029392046
-0.011960564889397299
-0.055419613962052354
0.02736235754565444
0.05731640739196114
0.12167598487639436
-0.05967975143464186
0.036482318056135464
-0.0042269407854507255
0.024997972889576864
0.023755369249049505
0.03527586072144461
0.00038584201260593345
0.013840716964583217
-0.03678560213076787
-0.004316880334667367
0.0018872892555252879
0.020261911583590135
0.03172762748008407
-0.027825791596807228
0.026229919387563524
0.08424968422802803
0.007940083592475784
-0.1412891815861074
-0.0116722043722807
-0.007225420881812191
-0.06678261307689728
-0.013301292056989326
0.0644233967656291
-0.06787292303731456
-0.01220132954425975
-0.05205205594426892
0.04795606128966429
-0.02152272489313181
0.020077875860811494
-0.015909082826215285
0.028626777526081715
-0.04587599792277204
0.1227335656454253
0.5055014529129656
1.060574731219445
0.46544714765990425
0.134143381902665
-0.010797802428539678
0.04631819751566658
0.01975038590620457
0.07098729274964055
0.06312584293629961
0.024565149453160177
-0.013570831101123518
0.01686462187104748
0.10232980036167011
0.11151477623711754
0.052806943104764165
-0.005024987774443237
-0.056994383293755446
-0.03642066638166142
0.026943543610870632
0.04359762341534555
0.05894271153872345
0.013474726977699816
-0.03274554783978737
-0.06906298198590559
-0.027923707525133307
0.034809470423561854
0.040526488966453035
-0.016606246195284446
0.0698292452797341
0.03381120923473498
0.029639838372872873
-0.040803621501190095
0.023995092193627037
-0.011361734490826855
-0.052186032071108404
0.024193096006109974
0.061855863304558306
-0.05053681670644411
-0.06218093614417099
0.005806762696722144
-0.03534502606141864
0.08340020023735653
0.09204784997466228
0.049314188731994946
0.020579216124344674
-0.030638744352433935
0.01912798289409997
0.06488046288340356
0.02417301129287399
-0.05870088843974052
0.0614419916503246
0.00031316469956832357
-0.05264697133372444
0.043857324506073124
0.055043398161098316
0.007495839699374913
-0.07331893693325389
0.04308356947985584
0.04827364296053139
-0.0004050739561460045
0.02095659384351751
0.048898331553955024
0.06202403610766384
-0.030916283476380865
-0.021110643859105115
-0.11611243239871374
0.01977914949497619
0.024833975746481052
-0.08560765622799485
0.08929362394023893
-0.01464803974790081
-0.10096005588097703
-0.018887387292486575
0.05628178617372731
-0.013392892428541366
-0.03071643974508685
-0.009367163560020894
0.044637861670412636
0.004970551320784659
0.038841239303822016
-0.09330718365679197
-0.01945014454030136
-0.12750363440267806
-0.066042855806887
-0.06726771361868876
-0.036864895701762844
-0.0050651623736183244
0.08927729424251753
0.009876200659955637
0.022590048886022594
-0.03144351713085549
0.005584064887815776
-0.043487816192366364
0.05670009816843578
-0.0013134992552924505
0.06800960126227126
-0.05513194388876111
-0.018147024763782847
0.0030988103117213575
0.02662644480807662
0.009963146195168478
-0.011873784052104005
-0.037753313116611245
-0.0712245772819038
-0.01816265749118029
0.057854966891618245
0.1598031339044707
0.01676172696480225
0.02341411365847236
0.00927130472305684
0.03785373524282512
-0.07946496604732792
-0.051632241441975195
-0.10188890345134999
0.05347607669055713
0.0009194018478902602
0.021407792013812644
-0.013797290263051723
0.08360285078308916
-0.03839123693043839
-0.038958306007495364
-0.04151654666387464
0.10150761873925561
-0.038665924700806584
0.053287721558856
-0.11250912726924
0.0067371034792904575
0.028964671744460487
0.015267242701518802
0.08177117989260077
-0.08262725181755004
-0.009672279509611754
0.015328258539055471
-0.030848933402792128
-0.07826449417118564
0.017085237766287124
-0.08619931899882727
-0.015740840548213543
0.020424704882729808
0.08522093600014481
-0.003618557526215066
-0.06578380136176931
0.01978311964803269
0.03856670898088366
-0.08007892141181246
0.09860483611274619
0.10763587246385337
-0.012284966063882475
0.07789916205690312
-0.05262265844052882
-0.05415512117865803
0.012234327303573753
0.15168107125727365
0.013693209093844964
-0.01147469412298066
-0.02091604722489651
-0.054789182671601794
-0.017003767164484214
0.04112839261579546
-0.0053785554439633905
0.04424633589536059
-0.058620482125654454
0.11459559645581237
0.06558422503471391
0.060016690963130497
-0.011747212502062029
0.0037020384466711687
0.11780212306070342
0.08156567109720202
0.006471679777983736
0.05338218154205687
-0.01942992798393943
-0.03197523825242188
0.025785895698113456
-0.024789292269963955
0.0415675166541706
-0.008719137766443555
0.043840040590134036
-0.011476806617249716
0.0374193846965527
0.014474171321934319
0.06902504670177644
-0.030478887286973413
0.03519462360922978
0.014847232816745463
-0.0049635040846830215
0.01538940597590357
0.077563813000252
0.04953110686004388
-0.024535856184743396
-0.01398029210282727
0.02833654003144155
0.1121414218739581
-0.005587534955489611
-0.007989467389482528
0.014254151549958944
-0.02641009536559499
0.01862151170638455
-0.008983611704811214
-0.025224914683963175
0.03290986009665259
-0.007072898206254955
-0.06238891564200693
-0.0007614895138806575
-0.06258238261004977
0.06467020059272688
0.01810593705035897
0.028759971300360496
-0.03675685619013563
-0.058131243319089414
-0.012349387940789717
0.05278472162977768
0.034847564676847916
0.061778817347860095
0.08255776218601547
-0.03508048719770321
0.085930459639337
-0.038540541409288226
0.0009386114391738787
0.06342341437536518
0.5308776835334601
0.9651421396296427
0.47673225440398365
0.11445777598595003
-0.001064850235307413
-0.01742938592313417
0.0516115588026408
0.011511928994415107
0.05655201329050641
-0.024687079693705444
-0.08588569400313412
0.04209303880266557
-0.07152828195011354
-0.05363870764352886
-0.005818551591669404
-0.0801013276184891
0.0016451707157998628
0.014109104815461319
-0.01577952093065214
0.005266894212631913
-0.0026166976707768116
-0.00030945879217299986
-0.044333592874240074
0.05901867426555785
-0.03168733133987685
0.000954036769029946
0.040036135161429995
-0.019239149542350703
0.03690763190642181
-0.021201020915096392
0.03384870883575119
-0.08441623893556967
-0.027428140505372057
-0.09038966281778293
0.009803679776407713
-0.0019455912336573062
-0.0582603144052032
-0.09578129673870744
-0.007171581002350148
0.08070354442563393
-0.0008139830735121733
0.06888723385264943
-0.04877587327261763
-0.05902115434077929
0.018682115970185497
0.005213408135663532
0.008754500325765574
-0.07358163258621381
-0.03965765639977317
-0.053450082802082216
0.034162060469508454
0.024195088449203248
-0.017141071480202753
-0.05612280708609211
-0.04648857663213485
-0.03782906316013289
0.0037706360373787697
0.0150804346214962
-0.07235675478227932
0.056620241950086
-0.016476891587125325
-0.0926477095774002
-0.020363205480191826
-0.050205940851732515
0.03199619809717487
-0.05436409624211659
-0.031794636757494145
-0.004715422882102921
0.005329093983115536
0.021233283067853465
-0.027088367879751704
-0.059361040437073354
-0.007246914791659659
0.08910234389632932
0.04118627750553033
0.07556607179219815
-0.06299764282607327
0.07141083050735487
0.002841099049968154
0.0019954689749004588
0.017519362374913187
-0.08869862558017749
-0.04886227500245313
-0.0737943091242939
-0.05356406563100394
-0.041863515440191484
0.09120304728390122
0.10426000437935459
-0.027786769126838896
-0.015884279503842098
0.05542983015424653
0.13280688725990594
0.05559625750234204
0.025211084245747098
-0.026174545264986172
0.07327837857051189
-0.020667686761284516
0.0342717491705063
-0.12918408152181607
-0.018868625040299125
0.0995936062851262
-0.05350046199312837
-0.02873741579616811
-0.02365303284180846
0.054361014216201625
-0.04850955223226772
-0.05305287617342386
-0.0057548963080186095
-0.1084796888439112
-0.04315211018518282
0.053527559767787995
0.02896445406518873
0.08656716940089325
-0.047791852816725655
-0.03201716939388779
0.056174143404498514
0.005908433112029538
-0.01071102847990898
0.09411489197263939
-0.009856237340716377
-0.0995682310039816
-0.02811208324748768
-0.013229658713507212
-0.019660028596904494
-0.05238944197897765
-0.08165140650984659
-0.05793634095130215
0.0035304044977431366
0.07297392822515981
0.05862974403401183
-0.06742774272496835
-0.04440824087149608
-2.381409074133522e-05
0.0010115311228615289
0.08135474160920632
0.11252253067388351
0.012835781464339622
0.008379942350042536
-0.037142369178466646
0.12368555852861621
-0.0065339635939719995
0.023170072294855237
0.06642386423537676
-0.0011282189782236083
0.01185996264907795
-0.08164111068790095
0.021159663934140736
0.07100907429931329
0.09261285358322935
-0.008136466424521328
0.06984349093774302
0.029815174583053907
0.055847108992988365
0.035118625982664846
0.01773120581256395
-0.0280992003035492
0.009736432885669189
-0.03408593095895422
-0.023721304348120344
-0.06561682181813382
0.10000152813903046
-0.09486752431407867
-0.019202295850638346
0.0005958230870145246
0.04411268069245657
-0.04475900036596767
-0.06124472410066354
0.017504121804525704
-0.03502084323021388
0.004018039262923294
-0.023325511186505277
-0.05500915265236775
-0.08507789069696808
-0.11636915808178808
0.10615301514793651
0.049739487881043216
-0.05874743206085012
-0.09112491096756009
0.04915268665850282
-0.030531036179661738
0.0005929108395604789
0.00523200009137063
0.004809023667343955
0.05967894295948485
-0.026938146370094986
0.010927789671450213
-0.012625560731934833
0.010245160168113197
0.0032349257568386556
0.021632001742245433
-0.0616656740149811
0.04651604757946115
-0.010417231879583882
-0.014160543467167564
0.022464839125427905
0.05333358687779649
-0.03159104813544216
-0.04622796511468685
-0.00031876976580381624
-0.03281736852808127
-0.035001762064192865
0.022002408958103778
0.01911289378595175
0.05138012731142122
0.05468758951007762
0.5380143992778907
1.0487895244510876
0.5389083288878561
0.14611516056013946
-0.03500010586461377
0.020499002650606408
-0.10022924030353134
0.00274232058215581
0.09790299013785952
-0.08844822787811639
0.06478126008804579
-0.029171638104299197
0.11523658130881341
0.055490177191158896
0.03574543405170727
-0.0004330505830868309
0.03978657852330269
0.010424694574370449
-0.022315710314636562
-0.031224347280667576
0.06570124345743332
0.030079637394251974
0.08230889250983821
0.06778138705630779
0.05604941216651883
-0.029573693817393467
0.028214675459712166
-0.00038695241355545895
0.06206732025826203
-0.007077520314776789
0.03374942069162697
0.028036173031699925
0.029464588169234387
0.024482927314509625
0.03080068653077074
0.009247317115027038
0.03654117305737202
-0.000645287725117619
0.04160066961551751
-0.026525511602804527
-0.04183853376720144
0.019195521774670675
0.06957601878155328
0.01620108215808452
-0.028402229436077092
-0.022640578257959936
0.005655543316597346
-0.0018607141533968767
0.04270642806311879
0.038014336635716794
-0.01543351695233407
-0.017513998397908757
0.01338532503213657
-0.0088526911670208
0.0882692697019038
-0.029201627413932615
-0.06257764562367797
-0.0291271214304587
-0.029192673389335313
0.00858673601052297
-0.03722734258851521
-0.01708864767226687
-0.022280887602698266
-0.0030925411072314554
0.02789112901082762
-0.000787839610345238
0.03091868139460422
0.0633429150764183
0.035154758373536675
-0.1255880727182784
0.011068958819156753
0.018031517162468813
0.09498019067554563
-0.03968421399146436
-0.07689507908242688
-0.03140711145440855
-0.015572930990897727
-0.032955837941284254
-0.0022177863896538203
-0.023596741105461467
0.016203824549978697
-0.023227776601321064
0.050581437182587334
0.029267065530836252
-0.1078874889172633
-0.07654020570025519
0.02374187010012639
-0.050617362262395306
0.035285539851737206
0.07051407683895274
0.029468719036178388
0.08928452466062736
-0.002396583854736212
0.03492829069810633
-0.017146793858223066
-0.08238937261293608
-0.014560286322222275
-0.0007931161243841869
0.1178221290930428
0.08592475848193196
0.009085613593457172
-0.0651567248725439
0.04711195460289058
-0.005615699399696108
-0.018804447493209562
0.011499455631330882
0.07584587150226756
0.051291299775661596
-0.09095065989186793
0.055990508267945376
0.005264742735808914
0.05828476158447309
0.017451705090296737
-0.07107267622445622
-0.018822391030209853
-0.042066908888160004
-0.008934125487812115
-0.00612884157009854
0.018282867286386492
-0.05181613575825186
0.19535952470815346
-0.010634953092887423
0.03424263308778631
-0.03655721509097027
-0.10924023787268444
-0.013987013239980781
-0.03742058181442136
0.04685773084863241
0.010944804903061954
-0.05617606448105851
-0.0018404409967041101
0.05913719420998657
0.023335952027588924
-0.01747476165340347
0.06265832765093084
0.04503836937436582
-0.054854701256267506
-0.056874662283455196
-0.05629292825196858
-0.06477632550839459
0.02256889500676001
0.00827855525346006
0.06261347140735776
0.0014687399495198039
0.028073280955639875
0.0807292010193733
-0.11862010855510563
-0.04803749989199697
0.008059785675122147
0.02996602008233682
-0.03616863361575169
-0.1127701766959664
0.00905298066989917
0.000516268098943613
0.09721152860735283
-0.10987761218917556
-0.008459026174184722
-0.049278288157791436
-0.014784714707893455
-0.06124361917104725
-0.08407321704395297
-0.03665597119833194
0.055356037457720976
-0.025326585051882997
-0.05846876624857551
-0.017585115430143673
0.017781719613699454
0.02536993687375635
-0.019725605968507854
-0.009957071344958377
0.04877522755047144
-0.014630501497292432
-0.021178254724268812
0.012679154598875243
-0.03687812635763035
0.029486016360679164
-0.06194453674439024
0.0018879712213914633
-0.040311754856138055
-0.0881660648664793
0.002513499286176349
0.0020206444317258892
-0.08924572267080239
-0.05780823463431503
-0.09074102452203785
0.01479737822272542
0.021485515532106342
0.01620380584783422
-0.02404035808639638
-0.0028447534729990048
-0.08270596605918001
-3.170554275029761e-05
-0.11108160654298001
0.004541722610464784
-0.002589722464758571
-0.06033029549736474
0.024644736782240377
0.078146701537573
-0.08593530895573254
-0.008471227032324896
-0.044443946973435684
0.08004843686630565
0.08584347860492267
0.11654300227098117
0.528839292814556
1.04449412605144
0.4677518344018306
0.1839916781985636
0.030054325511969966
0.04369911328147727
-0.08813035322001814
0.005544155965997874
-0.0369024210591365
-0.016620443587271
0.043851902656666275
-0.042590439223061105
-0.07527599611656142
0.11819958261987418
0.08964141216148924
0.0847708462419991
0.007957976109888418
-0.038462418377981325
-0.05492976421080378
-0.08999628311663288
0.0919841778180383
0.03303360479268102
0.05373834044005639
-0.11455162494726259
0.026735954757489314
0.06481190593185648
0.03493532978566046
0.018728181788756584
-0.09399970759395816
0.01620894807674982
-0.04970062252840522
-0.005329415713247999
0.07752576057436797
0.06220739851829763
-0.033349272689148106
-0.0795105881822303
-0.030233629273394597
-0.02344590479328683
-0.045174677463770074
-0.007565241277830918
0.03828423672336818
0.07480304324193719
-0.03747079733822621
-0.046573125218977406
0.04915927383246135
0.08879393185323087
-0.03088355425058686
0.036606582029294114
0.043410501131653616
-0.01902545184168243
-0.02186986076107162
-0.03689064698280505
-0.009890713453118722
0.08367716531379765
-0.021433981510420443
-0.01324468035918584
0.0048214479928302455
0.0898160850256018
-0.059913516704150786
-0.04296650769317079
0.06099710342360551
0.002028674589650865
0.09431692550439938
-0.023605102532557043
-0.0843002575873513
-0.030403172473508367
-0.08822687884816928
0.06773377464328335
0.016803903224383198
0.02087160177002896
0.035397282003558135
0.008551571580796056
-0.0377909323723416
0.13074779548913337
-0.001884862411021886
0.014502683702503884
-0.057885494157317655
0.07403633961932612
0.12177940256954987
0.029586120335874377
0.08116645354156962
-0.06706346695478692
0.010974879068811248
0.04212352663346758
0.055213767884470334
-0.087325175775474
0.04084752821524441
-0.10478646848524803
-0.054185252922795316
-0.05668829437383215
-0.044276342299053695
-0.03539852111428159
0.01393838469095505
0.019340618756383165
-0.05858337500226749
0.08083599753686739
-0.02651548980476139
0.004957998639072406
-0.061548367450223566
-0.01844620509136947
0.11640247899982337
-0.04236439320684136
-0.04902084234768976
0.03995771495628343
-0.009725140116348015
-0.04328658181411321
-0.009367712560515253
0.023536493665646096
-0.10993472539725291
0.10497948216476238
-0.042773304004563924
0.10745500200940161
0.06847383992011705
0.004954185050508292
0.04550115412185364
0.02421798531124699
0.0007001142978638376
-0.0409162783426732
-0.054226025810211104
-0.01777597810179914
0.08839643769610261
0.03430605949401437
-0.07687282031129472
0.0030965224722050303
0.09595557568273971
-0.042629824726025445
0.03895935054465613
0.04616184356472737
-0.05276864830028474
0.02147965842655157
-0.1073805811658098
-0.013295311814729064
-0.04952094809795441
0.1216338039263285
-0.030427319356943674
0.09122137517288259
-0.010028256070212634
0.02454304877104079
0.02058615531898621
0.019364696534141725
0.09332424756862304
0.005266532254459741
0.01625894068038885
0.1188337779833476
-0.00927590662986475
-0.004041071972537997
0.010460473350673379
0.02940941917299802
0.03855823233429869
0.00244837403402215
-0.032489899057569514
0.07962421890538725
-0.0814696380649504
-0.054480679696531566
-0.003795751475188665
-0.021033690909525928
0.03870540113923231
-0.05985856074836891
-0.02788203511796347
0.016781244942123335
-0.015991936764403362
-0.060045052373729604
-0.04996323105404722
-0.0072780204715002135
0.11263540256395177
0.06077809584097621
-0.060649782160613674
0.014798751866563424
0.05479996791530124
0.021382326649010838
0.06137921124589221
-0.044977320033332144
0.08048555295346956
-0.008568008037346886
0.06980041535767122
-0.012722225934055151
0.039772314316111466
0.01349769673034308
0.09310830055753797
-0.09468229638247884
0.020001220700605685
0.004429084647209271
-0.04228352077917302
-0.09783964137535811
-0.009409698024355744
0.02533009809102059
0.013288739282917711
0.013156137406457023
-0.01918261447869004
-0.10180576121734047
-0.07485945984101343
-0.03138399082777867
0.005912842018619868
0.03975171931802388
0.03356064957156016
0.13985853427178274
-0.04452740342096413
-0.0005636328504468317
-0.047059499369747015
0.017008225442493852
-0.0018802348215352805
0.033171963257495746
0.00550475585172386
0.03764982906544645
0.08082848330142298
0.037574058921478165
-0.05106528370995862
-0.01619717640276415
0.02856932890666843
0.03811772107163269
0.0006442321452236285
-0.024426403233325993
0.11373394245561715
-0.00175055527345783
-0.02786194757495966
-0.10479619472474973
-0.06503035681395926
0.040108861198993456
0.46385492425475905
1.0132228077306606
0.5234537413595519
0.08027118640916504
0.015281276032270122
-0.019711884229513234
-0.002138154407146988
0.0004511420363290095
-0.10780497694472924
0.0761866352193922
-0.009130101365729268
-0.020923893028146238
-0.003742564607193256
-0.009619744135165838
0.05594649092324586
-0.04772489452473534
0.06904722765445896
0.07469834930324301
0.019794294515624023
-0.0008434749073026887
-0.009884880541097756
0.047634827960237124
0.05086190634042721
0.008872927435605237
-0.07975820070126716
-0.02050272412998811
0.02145800798260712
0.004479550635905666
0.017645130435062665
-0.03638031070509092
-0.04722656348311398
-0.007755117960503943
0.04324389060218228
0.08134923881760847
0.013637389544725376
-0.09710100275510947
0.08770164689629525
-0.06612089847988743
-0.012183644572613056
0.006701865390225801
-0.027750383403820807
0.09647571668824206
-0.04790624776349564
0.03351656080267817
-0.02915461657816622
0.005115197752388556
0.0076680870462426595
-0.003193886594349332
0.028927068614284963
0.014214307005358305
-0.04006858616876423
-0.05574176939525867
0.018702510993574086
-0.021029039327472934
0.027923962228487795
0.07545134338091154
-0.07246728265411917
-0.03232059466124839
-0.014813259394533013
0.017550240423026314
-0.12585879198300323
0.029241679937411343
-0.05145224315822344
0.025230998216071106
-0.06947173693531687
-0.07886001968315554
0.046045566655568713
-0.01983134905288334
-0.06724792949734391
0.05698430379074454
-0.08331792382945327
-0.008734136367063895
0.019999820666583474
0.029284417314848155
0.039826536870613105
0.007353623254068006
0.02667692628219841
-0.03530524245722277
0.04686261679095922
-0.017049579448385043
-0.008146290458751504
0.02657685213972868
-0.0748723999153907
-0.02387788266980346
-0.09303599018754938
0.08462432255590378
-0.018693956385350624
0.02383698581311154
0.015322278839516243
-0.07820322948179069
0.019080107840968454
0.0284858619477
0.003926451547898105
0.056369906994521095
-0.07479351770101439
-0.05001688544125826
-0.020048453413153363
-0.009959457225331052
0.046008520324829945
0.029045414274575184
0.038256511146592204
-0.08145458265284493
0.013072573163670649
0.039108700238451095
-0.00033822594244165157
0.0057842543514831125
0.0344534185990538
0.05704458280423074
-0.047085611607787556
-0.007648752824440954
0.01420045523463556
-0.023213489176848012
0.06743567520924275
-0.02760982258518397
-0.042524224698145235
0.07447679332834982
-0.09719972629286375
0.0005921806044384254
-0.04602390497826877
0.008602014063787786
0.013258567422602431
0.03673709118274095
0.05026111656731241
0.03707436875400247
-0.07544441864749224
-0.009252029444383468
-0.010477961033862858
-0.009212604760712137
-0.008459698345912384
-0.046911489597349865
0.012657337754233578
0.11123271827533542
0.05921271095082327
0.030832921278112477
0.07109465830177027
-0.03638454052725125
-0.029962369870073353
0.032420820651281
0.06318404292288639
-0.029779867720935695
0.02681985873513811
0.05072736388446413
0.05088477614604377
-0.013945579724561001
-0.041492128094877435
-0.030606546166443344
0.015046577726461575
-0.05348830052221615
-0.0831116083657225
0.03142688134715448
0.019811260472278935
0.004881806719839888
0.04050906055527385
-0.028499932408575797
-0.03796664995630897
-0.02614813236793211
0.03443501929351989
-0.08960824746475621
0.00031269476992204525
0.05042615657981119
-0.017959976067403967
0.008788908848165819
0.06326918805279677
-0.05603363439162708
0.06266922663090263
0.007993923711869778
0.012005377488244907
-0.043348402499606704
0.024727368455501195
0.004786396129813956
-0.03742982839598139
-0.04834794476833023
-0.008697221573887427
0.12103585160242591
0.0450843551602785
0.05988834902450807
0.010030599806489994
0.023191602763640056
0.06113751882095463
0.06327947353345652
-0.06362261105835416
0.07742175494121369
-0.02398106087943507
-0.01579654840623321
0.015998347371052178
-0.09434506485389668
0.001383563406450213
-0.034300269235512666
0.027151818235551045
-0.023135907330831804
-0.10352672585863486
-0.07863750713032425
0.11175412035271484
0.031373856408330895
-0.05514096095053213
-0.06821679222226
0.009793553595897756
0.021783567685390314
-0.037847178843986244
0.005472309879419323
0.04252796997374258
-0.0032102246328163915
0.050414423003484754
0.08858151918469208
-0.008044329383078112
0.01627153774609581
-0.0609408439171286
-0.022423616792944513
-0.032085725805279054
0.06686326031204726
0.13834091456750408
0.4813921226772421
0.9451836757915584
0.4686507187930699
0.14096471202774458
0.04037399410744986
0.045309079918960715
0.010904406239956144
-0.04472040802307883
0.03228560218789698
0.06888298491463235
-0.053829096707638836
-0.06821566289293603
0.0396560562650945
0.032959427610667585
-0.004509187306357257
-0.1080412294882575
-0.0702364210266441
0.021835543669834513
-0.028713473058134445
-0.008751263837767984
-0.04413856991913372
-0.033530049398997924
0.05627558164951329
0.037502463771648765
-0.0023732037905552844
-0.06532644013840078
0.09733995272989114
0.03007267210937505
0.0765791180548075
-0.01635993841334306
-0.13919174865694414
-0.09717828623245804
-0.0675229485815914
-0.03063766496510539
-0.005773447845340982
-0.030170651466065814
-0.0340631968913152
-0.01794981958888443
-0.03741590665644434
0.03107458209236515
0.009522144426343646
0.040610583019352275
0.09839175043584673
0.007824178334068248
-0.018332321381368456
0.057064587088263244
-0.039405492956866885
0.07179392869656788
0.023540203644503085
-0.06284795266904149
0.03129194203445408
-0.03122089581402362
0.02268604595592001
-0.05949906947958862
-0.030853402504244204
0.017547530039220924
-0.057216546385370784
-0.049049950618526135
-0.012573508625849559
0.05252670898246542
0.016224181577521143
-0.009967470662698203
0.06962850048242772
0.03507207572750361
0.004006889079198092
0.02198353725009984
0.07267699890334971
0.008355896310213598
-0.03369621462743612
-0.003179506782220517
-0.006005491927998533
-0.006114557620605202
0.0014132658224267
-0.07053773333099131
-0.011258311658576367
-0.040535407421938695
0.016808875375591798
-0.03284686571396529
0.04508393752300928
0.03610171282941362
-0.057149975171603265
-0.035892934051213875
-0.039274935465961294
-0.028352335665351343
-0.06120495032751286
0.012653232782209908
-0.009919771524156431
0.044868345551689094
-0.01916827328996949
-0.05465348215697701
0.025291779288469696
-0.024907333406879714
0.029168894368847505
-0.07042926969644801
0.0743130724636195
0.08281180540679602
-0.008294501579850733
0.07007856454763854
0.010718225694469521
-0.024453640677758973
-0.04074081814278335
0.00896213116643212
-0.06098716566267448
-0.05140052343035743
0.07768844199197976
0.006689723350385972
-0.0046224572685950776
-0.0408488992998166
-0.010713421590646524
0.054525158376231314
-0.01976790887884332
-0.026847829843827387
-0.03393304442554603
-0.08009826481561994
0.09959188200999207
-0.043169266915779825
0.012164377363828686
0.03968151616714636
-0.014821301973830334
0.021627869752491195
-0.016998651275553344
0.03975463928537873
-0.05746471218509384
-0.011530541104231762
-0.02899934319718472
-0.0507114904752004
0.014470159348984336
-0.10938745600249476
-0.03324827409780429
0.005399432788915661
0.03093086036296651
0.05007410489849093
0.010856373605021598
-0.12888840547806976
0.07691116501116348
-0.026738181978274395
0.008973351166383682
-0.017492276613235127
-0.04349383195583843
-0.029912637245722497
0.008681082369070508
0.04723482895584705
-0.06131393654157598
-0.04987287534304699
0.02438073340678659
0.002248460596111997
-0.004098674935372161
-0.026897771061139105
0.00696479306895135
-0.05221158272218233
0.044160604390417954
-0.0010031765194395818
0.012792026699822337
-0.08960071264333878
-0.02385719379165184
0.03233718491736095
0.028146280357778858
-0.03252553223333484
-0.08639156878741747
0.03138768131144792
0.02638530406883907
0.01569001309812305
-0.00611190195989386
-0.008829601736622878
-0.036593658521433176
-0.07187866522511636
-0.022643611145500744
0.04589731227724481
-0.0017694194867298695
0.0027911093856366996
-0.12097237760688001
-0.0048893671028888835
-0.09421590952238704
0.07779517624479254
-0.0695107703861624
0.0028021877363732755
-0.017633329882841477
-0.00016267990499932675
0.024032868026848273
-0.08187270842939837
-0.09772012660726069
-0.006412315786715538
0.06547419538165354
0.02908958179660693
-0.022541075958383863
0.04965110492355192
-0.0010959846046980225
-0.005955978487155801
0.10092590020984325
-0.06403397929405229
-0.014576423708187262
0.006826966105842502
0.08301715416244536
-0.0189289524901919
0.07769239908189812
0.12777767577306443
0.5158317908026717
0.9217072738471077
0.5601375990613046
0.05122528937199971
-0.011334754724250176
-0.027804591342330143
-0.03986810980957706
0.01170606394198704
0.10157288247295532
0.03547472370159525
-0.019451271210205085
0.0586821574958211
-0.01338023060002312
0.03395642229023106
-0.06833722513688084
0.03648310769607679
0.041988271915851756
0.06469688676140427
0.025439932133336313
0.09029807509914978
0.0490466549830767
0.03052282859063541
-0.04174279903567163
0.029293973696257986
0.062180138648937205
0.0014402427343854036
-0.04090812958623754
-0.017971604802146494
0.021068768445939426
0.012084734001301507
0.11402365179783734
0.031547228917727765
-0.0077026940590069455
-0.011495363731865011
0.033383725803563906
-0.022751065648940885
0.05570864753153781
0.015774284177009098
0.038341487972369775
0.0411615334572822
-0.049303768311635576
-0.023396916530796782
-0.01162667271235315
-0.030853570340549964
0.03753172188657057
-0.0329726105429361
-0.053158238745264735
0.052642996314911844
-0.08900601851557127
0.09309178396082605
-0.0033721020716210616
0.036077458418330335
-0.022987442289306624
-0.05388890035965255
-0.035029860689313456
0.0052939118266524705
-0.04920262420304733
0.0521196119599952
-0.021799317099570753
-0.009809178937078661
0.005842465584900019
-0.038329528389574714
-0.002137910986396607
-0.08347228032704762
-0.006926814438180624
-0.047837705940149744
-0.05803763488600399
0.0037521536608252112
-0.05960182377255135
-0.023276413990704913
-0.012936358564139104
-0.05479991471877427
-0.04522248123060123
0.015190925848674952
-0.0005268065646750415
-6.661362045526385e-05
-0.06487820849919508
-0.02469112056747451
0.07318699409988848
0.010667982024065957
0.0249172289061803
0.00599984384485915
-0.04056517141663168
-0.08967474691423105
-0.014247848459250112
0.07570341937904353
0.030353722842181824
0.029695568832804428
0.03570500599097435
-0.024003634165831532
0.06816705303596125
-0.04467557424156765
0.019516290762466665
0.03121628107490554
0.01401666929168525
0.03316713639907397
0.101604350268503
-0.023380946399455205
0.054202703360646226
-0.004108897356877621
0.04905184175811006
-0.05922719995280795
-0.028553010790132283
-0.024453275876920207
-0.012809336602178851
0.02688049563780756
-0.0008120887077388244
-0.06126601033952194
-0.04266172437013903
-0.04885996368252649
0.005507565269626393
0.0461814496939608
-0.017633783886881676
-0.07623272266131323
-0.03741466870094228
0.04592932787953824
0.035264620638055515
-0.012156615484103234
0.0069681888946299805
0.09785572383973537
0.0054476457148604045
-0.008730892197174867
-0.02789646786827701
0.08188253893587204
0.034331638802350684
0.0204821489961506
-0.13137256142433748
0.09491850405897026
0.039867681394764015
0.03383956318562247
0.09220871413558063
0.023062577123004732
-0.02657307038913448
-0.0882393593960094
-0.01783441867201288
0.044619891740320244
-0.08167399899444508
-0.036492597477082715
-0.021981219796664085
-0.0469020346009628
-0.0217182915931413
0.0491927232753852
0.05994106467023194
0.010639541166426748
-0.00980560640611515
0.0003542756011689436
-0.02465020061800298
-0.013635481564921594
0.0336390251543494
-0.030038570739429667
0.02960936863876883
-0.007839943180588197
0.058564729576450175
-0.0636560240130037
0.06642215249649115
-0.05107510454928872
-0.034684654232989415
0.0040154725876554755
0.0511378936962639
0.0018659721309081338
-0.0775333478610573
0.05890643840687135
0.016579443436689146
0.019509892757519277
0.05972247014414374
-0.03622382497642414
-0.06341470704868159
0.005978539936842308
0.02905967165090912
0.09612843342203943
-0.0013550471424938497
-0.029068142505876107
-0.054733726570643175
0.06160507613574854
-0.0014131084655988999
-0.052651297763030486
0.0419673383302564
0.042414365956453474
-0.047192743542939126
-0.04563072843842688
-0.05299242848416352
-0.07646534586914774
-0.04312797115361631
0.03061894708079618
0.001479193124459527
0.07060099993128906
0.003083870283082792
0.01961087995486587
0.05296850908320562
0.001516176280585424
0.06560269556346368
0.0017759599833012348
-0.00508363617410768
0.05815460659031005
-0.03056513089866508
-0.04909795579862653
-0.04314585833643804
0.029714183371793535
0.005562331403820023
-0.012607983290008819
0.01433908048199281
-0.03367701452167561
0.010537522823622605
0.0715776227709361
0.5231373198466741
1.0219230901415337
0.5002982091532422
0.10618112870233824
-0.09840967186097838
0.03741792410149307
-0.053080431257274
-0.021572726545831086
0.020165546406171245
0.04766994092188509
0.024362989866116617
-0.07457747584486214
-0.021382839222993562
0.05926296804265943
0.026713683253553056
0.011261120821564934
0.005466931509600447
-0.06622212178685025
0.020098665684876598
0.029416787202319696
-0.011303232815415688
0.032170349163437056
-0.0651233095810616
0.007294304682381041
0.002521214049658451
-0.05871899833747621
0.02678241266796655
0.08392626016112999
-0.04131179157853394
-0.022080120245093565
0.04717345226357103
0.03391717865908963
-0.051275292808789764
-0.08710018227927514
0.07984776929109529
0.0743142306078767
0.04667783606930082
-0.026430478693013643
-0.027936247406286304
0.049511784734751374
0.03786924128672273
-0.04897617995732573
-0.0021780906160357026
0.01875389908760533
-0.04973422184980506
-0.02575576227011795
-0.02783900196614632
-0.052489485769414396
-0.023608859722496295
-0.02639266537236375
-0.003545991670909037
-0.03731930990813808
0.006702391376442506
-0.02602750843420486
-0.10382566157202502
0.02001201925410274
-0.07530831788846738
-0.08057009172539793
-0.07287254253093102
0.030289501471293608
-0.018433376898333225
-0.013375320016502077
0.030905279505796475
-0.10092464494095635
0.008301364017996044
-0.023116629865255454
0.01358141465322415
-0.06011016508964448
-0.028003546266742698
-0.04874951084992779
-0.025548892375122985
0.047395550035098113
-0.03284391447519432
0.062490204377706096
0.10720092698653894
-0.013384005909104761
0.1793109298896346
0.06964297090225284
-0.025501540299070133
-0.0800674267525801
0.051518072758516054
-0.058680332103931226
0.02529964859279924
0.07990827442334476
-0.04697892724752989
0.044529101023058675
-0.04397894965231307
0.0034591066399967765
-0.03017806480078304
0.062409654793171454
-0.00985677877455627
0.03204872623235774
-0.034234698826253004
-0.044069153503631275
-5.8424567880807545e-05
-0.010982599320991859
-0.06194428903715829
0.056842623093763193
0.03469785346612895
0.023284758796545083
-0.055770732330321204
-0.006038319939859519
0.07447121002579109
-0.0011851131442475182
0.0074665004058275366
-0.026031738668004456
0.029792889306413176
-0.05549697848504462
-0.009933762582816577
0.016216145870248812
0.02346258161671057
-0.10447406717569314
-0.0032116983803698474
-0.09779550159217121
0.05271219871099908
0.06706430322917624
0.025482487945529306
0.13517041847966335
-0.03816434789461201
-0.00871847491866606
0.023624414000582683
-0.011192036076482788
0.06989375182911932
0.013938787472870102
-0.0043220842985911105
-0.06274624580191428
0.025446446718446394
0.07937111664692002
0.08685091627882938
0.03769284240580981
0.03561044064698548
-0.011619020950604981
-0.0291859478192157
-0.005601216530641207
0.08642388060310963
0.024157210075965285
-0.07460736642539516
0.019642800236424084
-0.009920590437185156
0.0012757898301273278
0.05405660453116778
0.047683927687414494
0.04492205837089089
0.01742541825064662
-0.05114933833371871
0.07298753041316496
0.030517001225151014
0.0474385061990232
0.0006214857162364459
0.08523284691517437
-0.02961465668391011
-0.01211829754857834
0.1081961975681463
0.0013068082463068894
-0.003945139605889642
0.06041550789698084
0.06732597568718794
-0.04981891264607308
0.009097977019521898
0.04793836667509241
-0.08948244371487227
0.031730480087566564
-0.025521280778718347
-0.0012313161899803662
-0.0202779993593894
0.034134593741462264
0.04616349822914279
0.018289155004861595
0.045646950704917165
0.027835852627781228
-0.02447042712690107
-0.030528017381347347
-0.03563290651283451
-0.025961825153589458
-0.01967633127904207
-0.026579534412356356
-0.109776456463435
-0.056171353866854457
-0.004542232350983358
-0.014596590089941235
0.07088737157340252
-0.03616359649325778
0.0033991639485507034
-0.018810200574293407
-0.0236481403000943
0.09360526101401676
0.03336912460184918
0.032093547743286314
-0.011902589983838446
-0.019946118018663483
0.05371938160542721
0.011587219299080529
-0.032000559782681307
0.006445943307702357
-0.0028212026062653666
0.07717558263890012
-0.12087419987881283
-0.02581047144607157
0.03595700616673216
-0.02295563324340616
0.05085702439366582
-0.024306676892191136
-0.012133762940891463
0.008806219651896855
0.11794560550509535
-0.1026494266615593
-0.02314482908479261
0.004697056181073938
0.014170273042658721
0.023925456635633825
0.06033387345741157
-0.06852064167235013
-0.03210087609926639
-0.07180961324414824
0.12973500105146457
0.4775969526038123
1.063899884309166
0.4761991796855232
0.11575360916065039
-0.01977571237027588
0.053369620106561294
0.0005369365887836051
0.004502605076616532
-0.023307894489021166
-0.032690604797870546
0.022123266983254883
-0.06280365835849705
-0.12123340490789092
-0.02153035739431293
0.0279339838297202
-0.0014897650581437594
0.009490079813235693
0.023825085898860742
0.08262045468739598
0.016509825098422137
-0.01884813754214409
0.025267760777041754
0.014968321147410868
-0.01906770303421631
0.06559519845497157
-0.05244448655835228
0.04883554739232248
-0.04485894518833603
0.022512628061703874
-0.08350444151256006
0.05071242580660584
0.12935474655231635
-0.0324106170741139
-0.052621372291825
0.02956644383346594
-0.05192565603010714
0.03404374107763667
-0.002833227420921593
0.01197513938578837
0.019302965133506992
-0.03501975073585853
-0.008173913388095385
-0.02306741197070454
-0.04619352902065883
0.0071791043239633956
0.07309585795255273
0.09814334277726156
0.008031918464420742
0.06301286856495941
-0.07903364832839471
-0.00041353938815101874
0.006168251747028879
0.024295209389988325
0.1122938865670429
0.03620361305007116
0.03404844154733871
0.00982186223238572
-0.003497029657345919
-0.09879904050790932
0.025083848193121722
0.0351126701893425
0.018448567075149767
-0.01655026462857595
0.009218433290213553
0.07660146470800831
0.016057734539781193
-0.011659579371782613
0.09708334555681679
-0.03773707966402501
-0.0037648656933944417
-0.04573073641197961
-0.010347382925723311
0.04960847379624548
-0.029363461639787283
0.0963780785347263
-0.07477081734693024
-0.04675398605013589
0.0023987459918277574
-0.03219524048624432
0.06424352219496435
-0.015397250054627326
0.06717066354205183
0.005926417412728268
-0.016308221799156135
0.08335886687875088
0.04438471941594882
0.03377251329273343
0.0168274007815893
0.13676590578323308
-0.08211018639867869
0.05380708963233141
-0.035723504798340605
0.011954730921533933
0.05766705428715435
-0.07458630190904252
-0.031761307961215804
-0.06444289517880346
-0.06407396792168966
-0.055716959121637655
0.013973173724769245
0.010696725985001349
-0.05275601882272451
0.06244623432014778
0.05654749292509036
-0.060046741636937885
0.043875428302337614
-0.007358156969139146
0.11710244795919887
0.03447897657104161
-0.04790165649140803
-0.03153871882578624
0.059498754102322395
-0.07533352747745986
0.05202416052639184
-0.028057190474492035
0.03690947590746104
0.09474439642197839
-0.021224648668709097
-0.08531877205520834
-0.03239069920805334
-0.04827184978652455
-0.02882432844862627
0.02577105743024276
-0.01695533894574599
0.02365167121371213
-0.0043793526427032894
-0.027539040010474226
-0.05341374356811734
0.08577650389777491
0.04548432048490642
-0.030990345871121233
-0.07343434868160044
0.027048809783685096
-0.0031772022070249077
-0.037038837545711883
-0.034554163175274495
-0.013716489862350476
-0.016427582093227294
-0.047794349325130006
0.020618073326372166
-0.05522336550285474
-0.008514472971260515
-0.03175435728714325
0.022983500871263843
0.012365040121285505
-0.039155525020890175
0.00759015874042027
0.004205479002384545
0.04733504791669362
-0.011690204891775384
0.1046650437516725
-0.036518871400817145
0.03440253370426543
-0.008315432008647667
0.019126442854669065
-0.001379764157561638
-0.07612747130346367
-0.0027463918981160806
-0.004994409146898359
-0.008886326489930778
-0.04113380272422038
-0.04590524512663058
-0.017390795311543805
0.04371705770476459
-0.011310008844533048
-0.047016786880016356
-0.014096057023045908
0.007030590054552928
0.0006095899794341804
0.09760063966222332
-0.07792609298505399
0.1181466446264349
0.03125159117274709
0.09573154105210965
0.07246537541638526
0.004663623306771571
0.018750858294987877
0.03679429059508435
-0.019036321675736028
-0.04805370555681327
-0.1264034098774581
-0.053250413818482
0.019516336717418793
-0.043468158889912595
-0.022031167569573892
-0.0006919165625854762
-0.0678089872297722
-0.06053259610357867
0.04320227759082276
0.06846052332948391
0.05642450486732299
-0.05161975404569013
-0.05867764408468761
0.00024426800773372004
0.019342128299353552
-0.004575627978167199
0.03213665577282939
-0.10977508208748557
0.01636337085372248
0.008181434328154519
0.006240745833986676
0.041015228409874135
-0.017930315390751957
0.028279672185196243
-0.02466786311820559
-0.01142888520128721
-0.012529440860001817
0.07597698920770023
0.48987851770096313
1.0271507404169842
0.4516970531489546
-0.008352172680330436
-0.013487820556526016
0.08923731883591335
0.049827913451533125
0.027040705555426
-0.03751780488922046
-0.06465884992040308
-0.04754177866860344
0.026202418436297305
-0.012929613476285073
0.022645388939884936
-0.05185579400019406
-0.00494401941760089
-0.04607150082023581
0.03204566226627975
-0.051379939200223324
-0.05791966491653339
-0.034042735353484725
0.02352573061900883
0.11551823502927094
0.08446463366088525
-0.09958052359777653
-0.011236856368189625
0.027364353212344733
-0.04791262840690442
0.01560244157559072
0.03666824029194098
-0.0792766816524161
0.0574367191345476
0.0871596344388953
-0.016972651735191056
0.026167161176659154
-0.0019062432711974865
0.08498027760520847
0.04464027683705144
-0.03146914277787261
-0.026379318340085858
-0.023975893643263795
0.0036800303065622217
0.03366716665978709
-0.015247416436202605
-0.08768221209130594
-0.05700951916094496
0.006776424962726364
0.048076334507614366
-0.022466092961099197
0.03143618130943127
-0.02197575096851674
0.053047138580700315
0.056716241425707484
-0.010299093156404362
0.07069287830978212
-0.021093658276666653
0.030743950172426766
0.06151340936551391
-0.03229319282700994
-0.036063285098853544
0.01873499134981727
0.05324185011601275
-0.008572414120494828
-0.15036936253156885
-0.12143012790977153
0.03374240763996947
-0.09595681774232018
0.09227369278296224
-0.04226362776771353
-0.009199767045350967
0.062323610006773
0.037101309805085546
0.011243223254170657
0.002538121166122173
-0.04131242551670373
0.0019382848044508826
0.03496383473988664
0.028154031350227312
-0.03486544257630418
0.02585025055443369
0.0793735512771066
-0.05419059832782539
0.06193651592859567
0.0800844329113799
0.011382141532725236
0.09027710566648936
0.04936987495999821
0.005141649903715075
-0.02706353748226141
-0.03701427865450799
-0.0033482729753379565
-0.04848507706791159
-0.006316669212865976
0.04447033046262554
0.05520454056967057
0.02362685346654654
-0.003887653324414326
-0.041126986856744374
0.011283671389700049
0.09004915683483056
-0.014166346081549208
-0.06499550782088014
-0.10927226047718896
0.029510879348726884
0.025462245694755165
0.06988570400019462
0.06635906459225187
-0.01085540184547625
-0.0005073129661864877
0.02266195727407101
0.06469096500470892
-0.040451579249465415
-0.014874355057655907
-0.07722394073183819
0.056177597603583054
-0.029057825453051606
-0.016558659137392937
-0.04103933168462744
0.019136847288942844
-0.01338122835916964
0.0024956402941899505
0.014915425681685605
-0.06571146285195842
0.04439855558938926
0.061675716260565464
-0.023114498449417084
0.03186683455724413
-0.05066301399676007
-0.1175236286130823
0.01679181478220211
0.05288619449351605
0.08744051093392964
0.033214451744474766
-0.03848719545551305
0.06888814035038272
-0.08177354595208146
-0.028694870906923898
-0.023992499218457745
-0.051922930476417196
0.10458241712990449
-0.08265262218953989
0.014159437649626445
0.001766419623288981
0.05305530966350665
0.018153888589529196
-0.019600645013766384
0.058417358626783655
0.05199694809895059
-0.030566070975720856
-0.022060606258417964
0.037078773679603126
-0.04804142971836233
-0.06560381151089746
0.010272331976965688
0.0039875618627900275
-0.11525711602016527
0.012395313079895599
0.06531828331865087
0.11610562431959728
-0.05180951616180446
0.004708459566311794
0.02613054809479408
0.06996063338111705
0.09339329496532761
-0.03438833967485318
0.08541455574591945
-0.007944192208105367
-0.05496150605565984
-0.012778300812065239
0.029400917734112075
0.01848216677695839
0.02440778215627515
0.07305903361463839
-0.06291345429916242
-0.0279192957518945
0.0443659283490977
0.02813323676431442
0.024639740889216104
0.08980101348366037
-0.04985719226085289
0.0033416571961896522
0.021404835219932014
0.07351338377934999
-0.010144062352461312
0.017003448988940722
-0.057585441561359356
-0.029955286247383906
-0.0200391065781651
0.04110730101819373
-0.020594256539687814
0.0013552256705295497
0.029683136348378755
0.004813954135814748
0.03904491031019149
0.07475839001017924
0.013352679020999564
0.005956426648238691
0.03167297507343473
0.006793571779935801
0.0016520691973885904
0.06872783755153564
0.007713440482116654
-0.029066674099955177
0.0876065776888816
0.08836438108306696
0.05243305135950475
0.013171249003637493
0.13094352473153864
0.5627036030469594
0.9483875605582993
0.5029381958450457
0.0657515557159053
0.039938724747403
-0.038754532263864605
-0.04881790405781866
0.06331949654935486
-0.005294938887898383
0.01306576818740318
0.03894529429333336
0.03194753190288247
-0.03738572722685253
0.0077443142492043815
-0.08020191813363242
-0.01326462178541418
-0.03734992000586768
-0.04704472150265446
0.03872853135348659
-0.0058011561451357906
-0.03702302320223104
-0.047244377607793486
-0.03122212873532121
0.028602043748715757
0.1050409701883657
-0.03297240201789019
-0.04164976260871002
-0.02527980008232085
-0.06041588190996562
-0.021554012428485033
0.00427424716006856
0.016845017658516634
0.051573831082422354
-0.09848890510154655
-0.04722202590225504
-0.001580672402611541
0.007686344789978249
-0.011682756795701146
0.04135468550469881
-0.006589751038768428
-0.025900842510289335
-0.01156770544467434
0.020475646723405863
-0.06609918379669052
0.01640306099065095
0.03641407338363337
0.03707893826241777
-0.038157615076228085
-0.041205780419892604
-0.020198948694118608
-0.11748259242471706
0.052420771774985546
-0.030482702908936368
0.046330839422779796
0.042132692945776595
0.06279360868087777
0.01817612085023704
0.011891646498635857
0.00512642373780674
-0.02246355308121914
-0.06548474669424106
-0.030935853005798236
0.03469205822917094
0.00865325654800993
-0.11870950944505645
0.028016814849425992
-0.07051396708260874
-0.08690783809123782
0.01843485174219579
0.027956958872996176
0.039898453161206375
-0.0006710898829057422
0.006282913570512344
0.04806332566865146
0.02665790607086066
0.046841965045717825
0.03705329870309531
0.04429408016436326
-0.031992378765017024
-0.04094431270565257
0.08709216250334205
-0.024443245747523046
-0.08897543062790918
-0.06698414595066536
0.021158294279652667
0.0006958964824077384
0.022985984893422393
0.0791086055851218
0.13628386156020544
-0.0031635602123816172
0.01144655688192044
-0.05053683686687167
0.005320243645950997
-0.021775970479285665
-0.13702093866449808
-0.02236541917302233
0.037546240923551175
0.028729285528985845
-0.010240796503324408
-0.06531853886170645
0.014317159465463898
0.11761559696235434
0.11262516971106601
0.04644701018825454
0.044697276980948136
0.07501347008693487
0.0255838919568446
-0.03778687709950678
-0.02039379629789704
-0.05374390566799702
-0.0034999705399122575
0.07562241369545225
0.04360811890697574
-0.023090290732552796
-0.003945651159596126
0.021484713209962383
-0.03607105450034602
0.04133808217608066
-0.04850439656536036
0.011580486357849572
-0.03127762607327513
0.03281742309805904
-0.01137412704647825
-0.07746137511882521
0.049366814802450525
-0.024906188632077872
0.0007464726382247439
-0.07216917483493036
-0.07522894353505688
0.0228349203060771
-0.03969728305162771
-0.09783497262426394
-0.046104909099898096
0.023003321370714896
0.02876012055764491
-0.11501209274626363
0.0026116289401547925
-0.04235246349985018
0.011735691749218055
0.08441501390244505
-0.03762234982846643
0.10388352872521123
-0.04411581993729485
-0.02694812660211618
-0.024093472571257834
-0.008882970749184486
0.014975758350400329
-0.06864189822911963
-0.015225831551796366
0.005693628102810052
0.015361740049944204
0.05155122315557075
0.01378204558008856
0.018389231232572537
0.020493168237764106
0.002092448893675339
-0.03417195202821534
-0.07084099135129655
-0.08274215075849783
0.02143743368150798
-0.07253963607016078
0.01080952377242079
0.07441107716514432
0.07031416835576802
0.04912345694308384
0.0038521838680746247
-0.01739249745702151
0.04118493122088265
-0.05246586481466614
-0.03478343094307406
-0.03074351925339544
0.046390203502472256
0.03904231300609943
0.021881430415123203
-0.028256449051790727
-0.058852127263416855
-0.005452734824478333
-0.00030326225592023823
-0.06705740361768718
0.06090254479204937
-0.004513452722164627
-0.13883455618753385
0.018533456914777365
-0.018652095707239025
-0.042366546035585304
-0.031277936450238734
-0.01722312438747652
-0.04676597523083876
-0.005422069259387382
0.048363760591320665
0.024181897403136792
-0.017488645330503174
0.034797741143593824
-0.010028071792997953
-0.004377686882406802
-0.08279754777329819
0.0014853747513451556
0.07942056894113415
0.00551206216691687
-0.08007264980815715
0.09042615610629819
-0.009486470749740891
-0.02171825253418751
0.010950084090447518
-0.011439412353946295
0.03169057345114699
0.0293741456199709
0.017580803075194284
-0.003062753078567083
-0.015380585226355978
0.20428703942370074
0.43178783082204847
0.9757293117990528
0.5208601212410945
0.0833442268734334
0.06656579186592099
0.0006603081770634737
0.008069293074161502
-0.10275100191902596
0.01469322838200084
-0.0933212855022499
-0.07424731629825655
-0.022408043914232456
-0.0183871264001571
-0.05220478205040783
0.003724253089197753
-0.022644812309484307
-0.009924617224086175
0.0007159715885206299
-0.06334519742783022
-0.05168784047075699
-0.08404010966719183
0.0184868259791351
-0.027367497646039664
-0.056979384012224736
0.03164455675559591
-0.030892505928393106
-0.042651728405429114
0.08889697675952671
0.09487992352557967
0.1179147372130166
0.04126357032724392
0.09489191593999252
-0.10048284872932425
-0.0097052003725386
-0.05442677079390416
0.001401294370988639
0.008632708507506087
-0.04267111754465355
-0.05318028936063099
0.01341455755568822
-0.04509964102300033
-0.022830124507409708
0.005503864470936676
0.015978729789724692
-0.011565381283192282
0.03588460733941291
0.0180995539895041
-0.026785452369226338
0.022680697076485748
-0.07251907539656538
0.031194122215957482
-0.020486520423897994
-0.016460708892850184
0.006863628375948759
0.013625791246155962
-0.018099077063255472
0.017023054760489202
-0.00272093568612102
-0.06446499814484634
-0.04939896075320181
-0.08244357765372921
-0.03390098694891706
0.11524848630383043
-0.07148322028580728
-0.00432169908085425
0.017780839094201632
-0.003247839443731231
0.031598119862969176
0.018507811689176812
0.016485700481616253
0.014997987663621835
-0.013203147327253912
0.00604132860149441
0.025902723916302925
-0.0031357779710286197
0.03191399360803792
0.07021160369510357
0.006472979354438725
0.058406433302459204
-0.06438482115571471
-0.05108078766558151
-0.019299129887892844
0.03000949876575776
0.017140034618803972
-0.013995019140103919
-0.029820111010456663
0.024406191607475595
0.002816760610250235
0.05486030749454629
0.021225084472673666
0.009191195380143615
0.03509961915721482
0.026613031391248848
-0.0056666664098389
0.009017649626265539
0.054308255461059995
-0.022153678774334908
0.012946040071394516
0.004002598804535647
-0.07257204462157635
-0.08868281867349889
0.00843511551891833
-0.06988651335305894
0.025674604441419377
-0.027534551455719387
0.044369380440587025
0.03556196271545464
-0.060815021446776196
0.03987122485635437
0.06272925195704662
0.009048191993309784
0.002462417708390642
-0.055722201301905985
-0.018305216136975316
-0.01612249770110654
0.09163971718368645
0.09575375309639404
0.012923692474964964
0.04754593439172013
-0.031190392031967235
-0.07366184391880913
0.00705519187458107
0.059645030180093234
0.10791057006613188
-0.018815126224926582
0.05272042131232113
0.03113489065433013
-0.03610236029044349
0.036399331494998514
-0.08023637670378742
0.03367119242046038
0.0444768574724143
0.057181747146360686
-0.07270392307564127
-0.08721145034069229
0.03339207744438727
0.036176338693624494
-0.03904345462774725
-0.07261671534081723
-0.07581115420697955
-0.09868988926858019
0.0606706052536957
-0.015160510780526368
0.0380864261736795
0.022384365500238743
0.060649105212421145
-0.024204684303736623
0.08582482920817394
0.1024357539127506
-0.03946219796889672
-0.04102083677960449
0.08210619734412004
-0.007484426850322742
0.03344821803495956
0.004267415442328735
0.11870675049677587
-0.04206506808872255
-0.03421325779780631
-0.09837873968623073
0.07916575105188417
0.02056273991784735
-0.08478378833071071
-0.003088615636774576
-0.029072734790608474
-0.029593286074154276
-0.06905979075988221
-0.08696754753076365
0.03455675571714583
-0.03145831300521295
0.059992216016265726
0.0010042678605743012
-0.05657928639149106
-0.002973449127010217
-0.003870908295396527
0.02571943543863316
-0.0483851566067872
0.0410995269663437
0.046797312363115434
-0.006282176707441283
-0.01767470564336945
0.03543605574916466
0.029897369417952416
-0.020141186167688587
-0.04857452877074262
-0.0114138004399662
-0.04809623944600457
-0.03590245757471306
0.019278419528916655
-0.09353868479848404
-9.59354557131909e-05
0.06882318976193476
-0.016046846757618704
-0.006173111427813022
0.014374007382329258
-0.09556738068685643
-0.013926303441804878
-0.01592667578384927
-0.03239010941726038
0.024392688654501525
-0.02729945945380934
0.009638868486759565
-0.01160575174741229
-0.00880587943865012
-0.009943648512228082
0.004444927452708052
-0.01991783504058047
0.03235532833963613
0.06256919869245621
0.14727978940159392
0.46755752219719204
0.9797785066040365
0.4110410639000963
0.16104377450386403
0.04514273068448222
0.057734391504467346
-0.02957464053327955
0.0655371401890162
0.03811425648577191
0.04466833815734639
0.04252000602504766
0.05052378852298539
0.047248888395602144
-0.0423129275584975
0.03443333581920737
-0.04184639861421517
-0.03586374573516337
0.08098976756012838
0.09788801908430743
0.01858798604228382
0.08017669369176897
0.042663608990901554
0.016235698806257248
-0.04628550136000449
0.022444385512989717
0.00572804497998744
0.11262484757282594
-0.010029538445491945
0.08791568872376485
-0.045166933230259866
0.005839947300381957
-0.011995622830874476
-0.04255580574373115
0.06353506491106337
0.06573540583971785
-0.05325229505241017
0.007576381460367158
0.00040644675659215663
0.004963766587294501
0.05717054817388606
0.0769186434790547
0.07608934533051978
0.039431139560078515
0.04596543038233469
0.02593601296499915
0.09615469812535554
-0.03443288864225292
-0.01841078042366456
0.04602511635968138
0.069489633413658
0.04105999111663175
0.0340768093220875
0.04677726026637904
-0.05347781499469367
-0.008452135368270683
0.004251342194578085
0.010880860804809538
0.005536164024534467
-0.01715493849031676
0.10394414817028906
0.05754257500643847
0.01720819562755629
0.09414844171255768
0.003061094841841355
-0.06398360620175843
-0.05130111128011024
-0.08431484900948957
0.06095649716999133
0.07943437261212687
-0.030445087049317483
-0.07157138457283627
-0.004669830238083986
-0.05950196564906956
0.022633439356162677
0.07688209075461927
-0.0575032059559908
-0.03264062684411736
-0.016785806055069703
0.027257663148752654
0.03634919712330194
-0.05246787722956936
-0.02851714753588931
0.011139929466424336
0.06976554778386643
-0.034514212005572815
-0.008370443525954991
-0.006970729455852175
-0.022256134407228595
0.1146519374098781
0.013376435755050174
-0.048178763580752286
-0.04633000333695616
-0.02768830976188213
0.09340372097057881
0.009181267590773073
-0.037815479556886814
0.02482368981013016
0.09664501167257009
0.014689756838622224
-0.10736338608797216
0.13779951170651866
-0.013690675088286967
-0.07037887587800024
-0.008714887497108031
0.050879367385810365
-0.08514689963830432
0.12857132902133128
-0.06307890787591115
0.030575304582910436
0.0047747729397734865
0.023456991052420148
0.009564895470650637
0.010279599800274734
0.005963164753742079
0.0033437505734547042
0.09995375876679521
-0.042058912595795604
-0.08719851379940664
0.04889718344201342
-0.07791895365963253
0.0018709183521895397
-0.02008289270724022
-0.07260262632271337
0.07878894614375472
-0.031136241791529337
-0.03149978248830084
0.019937186900031805
0.012347827212640874
0.05129734564583526
-0.021129376966911015
0.040619100677671646
-0.07075373597799957
0.01941315060213449
-0.015859193639085077
0.04500989661372645
0.0999881540362444
-0.02949148102705479
-0.11126703181842801
0.003782719277109249
-0.0013561513998869212
0.05379326610437812
0.004648442164046001
0.012577435041515778
0.036947223065404725
0.08713897794695763
-0.07725078759094633
-0.009458417508873287
-0.02089860133202069
0.0035066975547812518
0.06572354119870176
-0.02371463810764127
-0.025462795510227107
0.007102874460863515
-0.04281629612734898
0.010318432611529905
-0.07548391779514545
0.07003200650769988
-0.021059615192717134
-0.06285834845917583
-0.024487393520734025
0.06261651559580271
0.01920022790062996
0.0016100606673986894
-0.06745271184143391
0.014867304035564667
-0.02403150285244935
0.14403808691116318
-0.07314439308030701
0.06732896893421936
-0.037354463356875305
0.012899616957978383
-0.1233322192505187
-0.04574620079413453
-0.03896348049783057
-0.0019370158632381921
0.04863597989170877
0.11373022924453807
0.06695316562469843
-0.0339097022488928
-0.05210774888773611
0.0758167749531819
0.013613080887804614
0.03172464898632529
0.06415748673983104
0.023049574237045088
-0.04009807815489517
-0.027775463476799024
0.011955725695525832
0.04440361785596511
0.0775147990534632
0.016517212134278186
-0.02989234160891141
-0.006875534075200908
0.03163333610934873
-0.01064030234049782
-0.027729008255467535
-0.010446037981450286
0.008920294303640487
-0.05195210559580093
-0.036990417283928385
-0.026186269378362576
0.01960750714540545
0.018522941822423603
-0.0325374518138971
0.02045254741068491
0.020605450868676146
0.004711099506576097
0.41589567588151255
1.0518440750588929
0.5261415194090135
0.1341628275640985
-0.03440635171566481
0.04859719454425976
0.05518554947484664
0.030151714639499196
0.02643429779338919
0.04100974094155864
-0.005646843014154023
-0.00773637100936737
0.00734615121565451
-0.010154915477199829
-0.002615723548613433
-0.045816807639088464
-0.03210984995615323
0.07830926473024498
-0.062381282391900966
0.048529073023918914
-0.05085715862540598
0.0013134208405835074
-0.017654783051249883
-0.028241474114912953
-0.014263175092867286
0.0162642050445036
0.022923670295673604
-0.023012595683970252
-0.02869738212432281
0.021498333433314188
-0.05896952872716526
0.021352207268826313
-0.015306730393142596
-0.06533045365702045
0.016996451257378423
0.00488531539294328
-0.014115984969241819
-0.01918809901212106
0.011334789939000571
0.021309563877390796
-0.03223590680139255
-0.019010432630770787
0.023820598083939385
0.06196417147702565
0.032915617924708755
0.017468847686137986
-0.03706346402152995
0.08820062515222558
-0.01820749449865942
0.015360580688861737
0.05578346542514631
-0.052478258883000395
0.04498915332386655
-0.0723992052769296
0.015961037293356357
-0.020558492011887638
0.030362650919511614
-0.023904955535545863
-0.0159174149154724
0.06946002797431994
0.027227773715991728
-0.0025192824485829866
-0.03510763677669807
-0.030472598016051795
0.005851934283193553
0.004650658242426063
-0.040401804451948936
0.05977366665623745
-0.06083771703801516
-0.021655844111025068
-0.018857351307442767
-0.10126784744687566
0.07626457709592871
-0.0582154107930893
0.030339127152746167
-0.03584639821052089
0.0665747893565514
0.10940360743870364
-0.05815280723146894
-0.037237877669918824
0.009806793721668245
-0.01781609206788291
0.001318269975067244
0.03510465305454657
0.05162147303975421
0.004048656569242091
0.05770471733662039
0.09451190588781844
-0.0014316103040169668
-0.015446838443231803
-0.06932854860158459
-0.030060870880684282
0.020637424118105218
0.02368491455204639
0.04287302908486394
-0.0014161489137928564
0.04602679858415634
-0.07029622563617395
0.013884224015051617
0.06837648839266515
-0.07881080238628357
0.06414512095195805
0.10428170654057999
-0.10812033112712459
-0.05516500623467359
-0.09532520570528258
-0.03282934965465186
-0.013469479703684496
0.04360103381650526
-0.04498876319330236
-0.0017696010112094142
0.0040241881105094555
0.058473237226435576
-0.05646824918111363
0.07085313099179495
-0.029644156589441084
0.06018262462349468
-0.034601610728212044
-0.0793119448578517
0.021686032854676518
0.04095539550596913
-0.0990476871794415
-0.012437193798654616
-0.031044055734529803
-0.06300744494554437
-0.05701224217323961
0.0530435379112486
-0.04916289413313802
0.009878532923356649
0.012171004562761394
-0.018154861828415286
-0.003136737029858219
-0.04097414677534433
-0.06130166535605446
0.0007816352642784696
0.0031924506241582337
-0.059423714743133106
-0.06220889932813957
-0.003094241159772971
-0.0020019132501790187
-0.06744999163903224
-0.018776677367822268
-0.07269926767926464
-0.028086974004457272
0.07755321973483642
-0.024826210253731495
0.1763889805225416
-0.011257084565667246
0.049453200260646896
-0.004987205687969741
-0.06095680463749134
0.049901384256294666
0.0871204204075903
0.016354933356404987
0.022926948195318805
-0.02859016364691911
-0.040387820195924275
0.09093097419243482
0.05619063163132091
-0.06427820573885044
-0.028673868919719365
-0.014404340228525476
0.022663806118343264
0.0010891949726691342
-0.0750017754495997
-0.014543315042884442
0.028692942307668192
0.05735971850802274
-0.006835136194064001
0.03567914915352958
-0.029236899530901278
-0.004224690908507052
0.05667301424063547
0.009607767059139107
-0.03248555633602575
0.06099562247247525
0.030062368548571305
-0.08427618379676226
0.0627211668701909
-0.0986701165065444
-0.0715071154548186
0.031158136452965154
0.06108923510264137
0.09345245784765338
0.035788023229485655
0.07236026946478018
-0.016065359246116344
-0.06766141722420226
0.09247766168394858
-0.05210854976032715
0.09435983822049203
-0.06664777989751773
-0.003222758672628335
-0.012785293428085823
-0.07748910919909055
0.016424191273411926
-0.08236512446269546
0.02011775990807063
-0.016526626281130607
-0.005780912246344675
0.03614188150524292
-0.006886318223814938
-0.005752491737866378
0.0684078736764798
0.0031668425584876893
0.008026645952788599
0.05546952100813845
-0.05649324805270113
0.04412683089844183
0.0005512236005204191
0.045259662422190795
-0.03607934135303773
0.015572263886113588
0.1058080053833529
0.5838374785953171
0.9732419164148981
0.3937415662506114
0.20224130003150873
0.022284947901674044
0.0010758239063596439
0.007493428382475864
0.03574753305691515
-0.03491074799517532
0.04653047721895609
-0.013087101833430752
0.11722931360651026
0.054257591432437
0.09964137296178938
0.019417549207671258
-0.02490327580732688
0.01483703682047036
0.015313490933594062
-0.05196040626397669
-0.03824812737104652
0.03116218140780957
0.07952992327898328
-0.004335300828022889
0.05168191698416515
-0.07513577033842866
0.03681604502967855
-0.037932120413165044
0.1284571620147335
-0.0039773808863930536
-0.059533525707143355
0.04885231408057396
0.0665465989053167
-0.03821895701948891
-0.032489902994982924
0.09322464471402869
0.018627982516081873
0.03683223903061369
0.072587651306719
0.0370920779734925
-0.01799456205676705
0.10340481393341745
0.1275039449082632
0.0207514804742671
0.09397311508145052
0.08755123350735912
-0.07770160893829921
-0.03200259697691199
0.0919628534378112
-0.03122054419237883
-0.011215803075340303
-0.16983564592532335
-0.08099810235226118
0.055192133168542656
0.010046924889350908
0.057511210493428944
-0.052000083612412845
-0.06354520931454637
0.002925540073090349
0.016893502891520727
0.012362458701786712
-0.055149206039542
-0.0225167420436215
-0.039899159075147475
-0.08190407536567984
0.000926795789223627
-0.08045655562830949
0.06688214077553238
-0.03192285564243235
-0.0333200304843449
-0.011537915133960085
0.05066824999763253
-0.026910250980817015
-0.00828504854712922
0.04117347373210519
0.019704671072608922
0.0612084099416381
-0.02404701033226921
0.0007375360156199067
0.12084052984880994
-0.011537955316163986
-0.03210464611470004
-0.040136762421867825
-0.023269663462601637
-0.014697928080467618
0.10822873967920202
0.008937655151465948
0.04462066221953418
0.12839384153954775
-0.050049928680373584
0.007717251810138471
0.003327001240109782
0.029255088178496882
-0.017446066030745198
-0.01613361058321619
-0.06966235536428736
0.011206367192071558
-0.002977298385658571
0.030752749816384463
-0.04084932145691064
0.01474170156070588
0.06317970822831544
0.006810003473251141
0.05837179804882921
0.05113894995160909
0.023305421651480276
-0.12124077721653524
-0.04199859132672725
-0.017699847580315127
-0.017875058748663967
0.032456135787133314
0.053784908746383024
0.08115879086986491
0.02840450684907252
0.013904676186984497
-0.014114149142343397
0.10405041907274369
-0.006308382403720368
0.01548185456209264
0.03764415509056487
-0.04995080323539666
-0.1013650158076771
0.021333628084171278
0.013669722599244222
0.03869035918859173
-0.03316249285043634
0.016363472692941312
0.07129073928103097
-0.10419285987762911
-0.014523024900026524
-0.05834477191683284
0.07317157701258001
0.07493151415428201
0.05585914114467411
0.018811082625593677
0.09437879013910354
0.005854478706344843
0.049359816204508175
-0.037159991310442536
-0.009291318298549936
0.005955143915192649
0.025253996857018242
0.058258450780632354
-0.011860763924295654
0.04511543389104464
0.03783601345324091
0.11152645785352251
-0.005946906794596621
-0.01809134745434938
0.0532609962620331
0.0844576327493976
0.001549460715468883
0.046116780422697234
-0.037052964683943944
-0.0028795803251192137
0.03898811248401379
0.008579488954392915
-0.02275001623601762
-0.0431155533901994
0.01261998870414735
-0.08092553092159104
0.020932639259427285
-0.05976500725920915
0.011751143671103826
0.03528580460927849
0.03207399068548431
0.060043270982554325
-0.03180395604499531
0.08471469363388635
0.010561540306194953
0.015156618449760765
0.028174355386222205
0.003507084074908179
-0.00831253916220599
0.05037894236776114
0.09580294293921959
-0.027895632793611
-0.002506472758208656
-0.07003283222814993
-0.03935473128326794
-0.050248589160097806
-0.0019379499091873955
-0.030240667537090534
0.04685658798307173
-0.06252850279273775
-0.022585508380890233
-0.030567237878940563
0.0006469851427551441
-0.010172729235187816
0.011532150203431683
-0.06690812514966714
0.015776030943493204
-0.03460019941931364
0.024503633749910783
-0.009050144409355055
0.058920475506562146
0.049076182816627886
0.1156040655841453
0.5365191176817827
0.9775777879911408
0.6004202002496496
0.12159878483349171
0.02493465757981206
-0.05357563217640748
0.04307955026390238
-0.06176622581808982
0.04040165303692622
0.014360209588592002
-0.01366327734303726
0.04103405143301439
-0.03904358519089282
-0.020606086070304813
0.03683326613273399
-0.01178978575932421
0.012063706511774073
-0.0794431316502475
-0.055122016342324436
-0.06641113103422452
0.02266461004639503
-0.07702644427391962
0.07215910499553145
0.011725629531128592
-0.006629560255570855
-0.004350841943913593
0.025011477821677387
-0.030083669452334358
0.024719445930461412
-0.0602691858219978
-0.003237464521988677
-0.013922117788545041
-0.009354404101380182
-0.01656360979113974
-0.0698211663932927
-0.040438187883892106
-0.10249486909258926
-0.021672036363316872
-0.04850407064825553
0.06569930251140657
-0.022347815680622087
0.01036704126461024
0.0862489024928135
-0.004395012305234294
-0.03243959160072426
0.12263796360099886
0.019166526157470193
0.10585526345392134
-0.03466287407599653
-0.014620773476978375
0.158526534060356
0.03118720856197939
-0.03514655283472543
-0.018100416497578955
-0.006787735454042202
0.008576392898384943
0.029561179292256913
-0.00937732475909968
0.0059313557612524275
0.026437649618729256
-0.04192873162156087
-0.07169735141109872
-0.06823198702366359
0.05854884825059864
0.11580850604365411
0.03851274384998121
-0.06397141302875994
-0.01886126797634072
-0.04990318340368483
0.020026380085258363
0.03091629247469988
0.03528426761484806
0.015096661672856143
-0.01382077556387596
0.059443308219738415
0.03739097287811107
-0.05253978066348872
-0.10609296770948051
-0.021235214778141512
0.020733671415360345
0.055833170675285926
-0.007774205456415938
-0.0027796269608995373
0.0015637864882822507
-0.001619642125260731
-0.04185971759976884
0.022548528969231412
-0.04505444395953936
0.023983144455441058
-0.025439091754852695
0.034643254146980836
0.03369155849743896
-0.020858979295776885
-0.04442277978268018
-0.021196511452772116
-0.01824671906039166
0.023407367933651262
-0.0074601506566258835
-0.10206541548806723
0.07113990802277564
-0.018791930037173776
0.058988561342369496
0.010562537503336973
-0.036032060875855455
-0.08511510174429826
-0.04639804212393351
-0.06012853201465123
-0.01055238744127234
-0.005117231717790304
0.0766184341227631
0.035975516065388326
0.03248239687554085
-0.023623751261198547
-0.042572585480034196
0.002282091508514288
0.03813143606369495
-0.008745281621693104
-0.05539348947900701
0.055082762747698355
-0.08249133955572038
-0.019804180211084658
-0.02432120625400997
-0.03770721876314142
-0.11518352797107596
0.05776691011288002
-0.04305816046018962
-0.018040971901520337
-0.015068314259787172
0.0003056623406842277
-0.09151882316295551
-0.08825675658517869
-0.07717766950124588
-0.008680413090844366
0.017988695973748633
-0.06457674656218938
0.005986637895549685
-0.04081984307939188
-0.022510684028813496
0.04376256071871516
-0.006834797920185737
-0.011368287611912616
0.013888705682143461
0.021241032518277216
-0.06948036508601561
0.03323926695304095
0.05497841965262053
-0.08023488509665876
0.05201383614447372
-0.08990522827146344
0.03351380256058259
-0.006987145462517413
0.10337230131743858
0.07044931027266574
0.013246792592104099
-0.030200802721449923
0.07937271290676823
0.0028175003398727997
-0.015406512237515971
0.029968891254308978
-0.08302501638332116
-0.014647331958572474
0.044891451550216926
-0.03539211797120341
-0.12475999913587497
-0.03335375896129555
-0.03067593588112122
0.10201312334522086
-0.00591066984751659
0.028669348969169107
0.06132652263305123
0.00907577789034566
-0.07446612581658066
0.003974497230674696
-0.0503125736774459
-0.041308080219870896
-0.05293792898535982
0.0019706557980068585
-0.11835735629808648
-0.04257386130319346
-0.08287664297362268
0.1021992683263536
0.02823406561213882
-0.016681032354631847
-0.04922107878132201
0.007684440336959477
-0.05757288525850079
0.06777073185058304
-0.033347764812182455
-0.019279887692266243
-0.020766408614993154
0.07468094773401732
-0.1442800811673669
-0.03384205150331609
0.005607622135526864
0.02127004187522161
0.11893464472564877
-0.00784357297251583
-0.02087727822045704
0.03407587767026323
-0.03881382611491943
-0.019242789295422755
-0.0345965469730591
-0.03721384375955992
0.116110968649277
0.5522326821213166
0.9909025509418824
0.3809218528198106
0.06102079566457769
0.022952088155390668
-0.03611132550957322
-0.05075323345667873
-0.1794033337792209
-0.011953873275815126
-0.16084821340305547
-0.028154765114592813
0.03174606602959385
-0.03183226771618146
-0.003062425316347636
0.031180944511014465
-0.06232881150809926
0.10693126007616993
0.013928488166145904
0.055352082104081324
0.046742344596975086
0.03048126846421106
-0.02194149715632603
-0.07487125770149505
0.12470504386207992
-0.07511879282176728
0.061053028984869806
-0.017663413866536245
0.018978697100384342
-0.06333461575556243
-0.01056799737860408
0.010130644027553145
-0.05638623625905286
-0.0014521628948013596
-0.048814112881406635
-0.03812249799446101
-0.03225577871042197
0.006404591635719829
-0.0535501025772922
-0.005311742621839643
-0.009144940765818252
0.009537730520518886
0.06365304322863806
0.017665643555693313
0.027466293788268675
-0.07696087903039517
-0.024064935768798736
0.024395506562461033
-0.030542456843808692
-0.03909046921111196
-0.06536997107205576
0.09521421765591938
0.018267924001493303
0.07054928505409502
-0.04271981709106471
-0.013065412162723758
-0.08310243768254422
-0.03945914560484601
-0.04681266269924965
0.013831271540422513
-0.0026510891088661124
0.04804228445930651
-0.007005275190841643
-0.018831570520594518
-0.09508747036014004
0.025267645640160444
-0.038040540639705335
-0.015356079393607357
0.03475035293836967
-0.0741774427797374
-0.05701033182067361
-0.08054246903633536
0.02987933814658747
-0.019950799640562004
0.03236442807074778
-0.010925201267332126
0.024920465266299565
0.07285488786736677
0.020648581781218825
0.06298743904769354
-0.01952571974526488
0.026704392181640536
0.03789705613539429
0.08041068473275198
-0.06887882805479212
0.009427460308435366
-0.010458620998694095
-0.029895194348970373
0.034772520526651925
0.0083289691834832
0.07790271919594112
0.07798898037445626
0.05856492183061536
-0.012883838019901282
0.12842778938626317
0.041226472543125316
0.012557045385603802
0.04773360774011671
0.003503736418608556
0.0643440229383722
0.09572939169986983
0.04256297120667332
0.0035898354145896053
0.04723337856911666
0.051208493606450724
-0.006845202404942408
-0.05071719720053121
-0.13289439050553228
-0.024552345642856674
-0.03061929498793315
0.0002242833843055594
0.06951871534631841
-0.07326382365077685
-0.021705011036369667
0.04808223718137508
-0.015517543795806553
0.062068508796959215
0.024774300911231187
0.027243399585924217
-0.026069652792767514
0.0029768723295271284
0.021966877497750954
0.010790840622209003
0.028361371258996206
-0.06241052833661625
-0.01367975444690981
-0.017744439894262554
-0.04776107476350197
-0.024148801773262944
-0.02984096007758685
-0.04766539110526684
-0.036336777501076646
0.011392133741845709
-0.051571348389622476
-0.004288595022189657
-0.05982109847079667
0.0054833042113533155
0.06659112666056018
0.04295852172229062
-0.002210120891863996
0.06262817025210285
-0.14005357181069197
-0.032164254308264216
-0.07922655146526034
-0.06918857229771484
-0.03052012296329363
0.028887083100326835
-0.06627768303603018
-0.07314913762389741
-0.07141053653431088
-0.001577902351450241
0.028054654039187193
-0.030398121377392857
-0.007592017697219572
0.013695725582295488
-0.020510489436677673
-0.1649467201767302
-0.09852501173620817
0.0042789290330173145
-0.01476238347870193
0.0008408822836770259
0.014052826330586118
0.07860038911568014
0.042841033526673726
0.02095546691935406
-0.03082913738040832
-0.04186023948983933
-0.06359037397593816
0.045172151604860634
0.020680506772941094
-0.061897284109688804
-0.004283362151953049
-0.050359042377603004
-0.03142553349875489
0.0048611320726686166
-0.007556738671165596
0.11145306620268516
0.031639583998474975
-0.052935953542092434
-0.06075330827006319
0.01143020617740753
-0.010357351547367404
-0.06943112008249624
-0.019855391089443338
-0.03522999725422777
-0.012470860709443081
-0.06806107787981472
-0.06383185562321299
0.04953720181198123
0.004477138946960181
-0.029670621784626497
0.03260503108554051
0.07825156352374418
0.07316592506955592
-0.04001207352263823
-0.07373338990293586
0.007915053553795227
0.10431070599386863
-0.038809581171831364
0.07370612737509157
-0.02922760920883948
-0.04761057265032875
-0.030628968805637424
-0.034604951065331346
-0.04027382897690748
-0.10194886001811541
-0.017316141947349657
-0.03235288414110759
-0.041285593940200246
-0.04982918042138251
-0.02397366852388928
-0.035637115291106525
-0.05753910804041319
0.021059617504889324
0.11323795422726525
0.4277257493283724
0.9901971678134256
0.5523956490246325
0.037764500772385245
0.0032969754783375924
-0.042843461978981326
0.012229095376305735
0.1094745153035637
0.05040870112712627
0.009564663570842333
0.05561982258098889
0.026358254506943186
-0.01457505720757524
0.040746283593072315
-0.051333914146243824
-0.0022686489229752963
-0.13268536916707824
-0.008252552508363226
0.006615273861396986
0.0940919642650887
-0.024411094533843086
-0.035959689981545556
-0.015369187952192748
-0.04132018044506542
0.001969159418337326
0.06992760135979181
0.05385117127009303
-0.0022427005930759293
-0.010039240043465722
0.003628151342231836
-0.1023117305224574
0.02480684894985095
0.07141337151048459
0.11387845152513675
-0.039812505278973453
-0.06885381253551513
-0.042125173175643314
0.007809711590621736
-0.0036759659785701258
-0.1293960830818672
0.15189763283805433
-0.02056758499963893
0.031248586225967875
0.034532503979638196
0.03442819640845479
0.045962901421330186
0.022593984294474984
0.025270054193570504
0.025701775906192454
-0.10211860171279392
0.013520597438919816
-0.0049788413670513116
0.02074962826280656
-0.023458156424284168
-0.06393948257829869
0.004755941139305814
-0.07296479482232691
0.037490915635773364
-0.01936215582553928
0.010328979712631428
0.024644363362191363
0.006410277339493869
-0.08420432879502696
0.08531259771376082
0.03334014382250729
0.026512822629862882
-0.10688555487757588
-0.026448884567116263
0.022726384103159795
0.03360727361644551
-0.03239020428825339
-0.06078654794069244
-0.08195509778633799
-0.005481477910020331
0.12448954525249734
-0.02982635059407205
-0.023884248939603874
0.0058417662142053045
0.0492768803968475
-0.08546067389046651
0.046793551265686524
-0.018383612034819197
-0.03673717849811111
-0.04069294244246612
-0.04704559145868245
-0.05728930313843042
-0.047413353998787454
0.07753421401306887
0.018845236164942086
0.018532562820468425
0.009611539823785957
-0.0009820338817765892
-0.005882539004832713
-0.04079587636022767
0.005345027181612188
0.03822845763917011
0.009512982879933412
-0.039707078061123946
0.01187018836410713
-0.05529566168222177
-0.04952047134837022
0.029629413826727236
0.04101064611812472
-0.013937409720708574
-0.13059309745297268
-0.051938087751425194
-0.014603908201589756
-0.008343420175517164
0.00032331260960381564
-0.08509487742403993
0.030554381918157993
-0.009151541701829467
-0.005065280268317931
0.012222785194950377
-0.0010190657120210697
0.04879870655784456
-0.03631884260101085
-0.03200645866658047
-0.07465401245059021
-0.018467304697078354
0.04972310086950145
0.014040625639787922
-0.06101142211987224
-0.02160701716605703
0.064516196085489
0.048227821768432655
-0.053903490726937064
0.07389386369995836
0.002145740429905826
0.06778250597100363
0.11804916129038674
0.034098192071344256
0.047212346763522824
0.031185510130424948
-0.004271373543457565
-0.05985698469085668
0.013090864745694743
-0.009800578473222726
-0.058196814254147015
0.09062838856947457
0.02416436210845327
-0.1114694730777472
-0.06271151177198019
0.031066775225480292
0.16786073368035268
-0.0071997294012352666
0.07132714328821696
-0.0028679954458978242
0.005367031604410294
0.02564632925326396
0.02626959668294654
0.03039031975569184
-0.02273823359812148
-0.03484952592536497
-0.025705792101264436
0.072078534744603
0.030420038927442352
0.002780869009688188
-0.012401737806824088
-0.07171158199418083
-0.013264436283799695
0.12219648258795322
0.0076462089143766445
-0.0021760065186531108
-0.00642636149835029
0.07530194226581527
-0.04550785620310297
0.039594557562565726
0.07424390431139294
-0.023607360593475166
-0.036231256620959294
-0.04605797810478577
0.01951491911671966
-0.01769445805672675
-0.022437223414288054
0.010617511860384456
0.0846474733478391
0.04850135806102322
0.05202492276151069
-0.05179729520674978
-0.061153970496015425
0.07808111129667
0.030846726173833956
-0.02474968371129546
0.04905926979271032
0.015773616176187662
-0.08009436771538848
-0.11184012193282684
0.08183150103159376
0.015582382616540364
0.03966680890055238
-0.04206755328045616
0.0739873693508555
-0.028917992055753735
0.0016314865500377776
-0.03384035729122302
0.011017026679262847
0.04690319941297199
0.08710579096845739
0.010169419747593875
-0.07830201988044246
0.04652573039044846
0.024346766192355394
-0.040840370844186985
-0.05616199035667048
0.04315297039134322
0.008658897926850864
-0.06757666026878477
-0.013498505756613065
-0.05936521920642173
0.039814616487756915
0.02109926773611706
0.44200430382264033
1.0567844014716365
0.5413352160515277
0.14762927973343337
0.02501126862267756
0.013264057683442847
0.04035906898814487
-0.015363274484852677
-0.07024840350712111
-0.03217370912331735
-0.00929464966987871
-0.06090817791657413
-0.10818310496652919
-0.003898006289195083
-0.03273051057598014
0.009085083476979958
0.03823152793766235
0.00846503914481332
0.0012717774299624742
-0.043617560535918455
-0.0522335452820023
0.052578939671388485
0.038132765755892244
-0.05994627873881045
0.03788523042826633
-0.010262021121529486
-0.0644332685507908
-0.023808329000353175
-0.02236923368899866
0.0256698499083558
-0.00713726538927413
0.09447000652833361
0.0443495404899977
0.03875110185441515
-0.02342464315885265
-0.07708040333662408
-0.022957206753469444
0.02523943344076149
0.07113331168899896
0.021428064972334026
-0.05755128398267624
0.06926357412686951
-0.05321610933346815
0.01077847263778568
0.06815464856383659
-0.04665576351872784
-0.006197883805617879
0.038393482372351045
0.045339120427468765
-0.019265370208213915
-0.08817744179008302
-0.054164739710060084
-0.023789814437549465
0.0006756261657044258
0.06390064179683669
-0.02515995302850644
0.03159707191270166
-0.013222580122932072
-0.006266005004209642
-0.010837917743405867
-0.0877985229866717
0.01124338994838718
-0.054156109596022406
0.017658219127408212
-0.022106824864824334
0.0025084297653883364
0.012299862884909108
-0.04203973896841764
0.06588241037466107
0.02788884538684347
0.04911390476155537
0.05409511016264073
-0.005201932251380283
-0.008959978796058145
0.051162642444513365
-0.004803145065268527
0.048378671687122676
-0.018453570940882
-0.034407259989551846
-0.003811435302702809
0.03200295754775944
0.040106728315452256
0.01621729799088407
0.03856350950473644
-0.024362703082999676
0.09726885098127948
0.046179013783322315
0.0453380171652539
-0.004572141566577577
0.011006530382995115
-0.09404067729190246
0.1357736933980079
-0.1013303180529628
0.08479339128554206
0.034521931078824834
0.039154081182308065
0.00036966718522469605
0.05194922264035578
0.041755885202119064
-0.03868928683961638
0.05121030466453141
-0.015217007515455473
-0.045332458226889444
-0.04272539779566236
-0.04123595169959462
-0.09219441991580091
0.010390829808423999
-0.02902674507877679
0.1247460976763152
0.03538231821308911
0.012146541659985043
0.005280147279053054
-0.09424997078315372
-0.05486068555117775
-0.03636713732616058
-0.008714578220406487
-0.014853264341273762
0.06024952977320244
-0.06458868053905462
0.03627111802895054
0.07861684831794624
0.020779027305193796
-0.03212715505627198
-0.026836399109203574
-0.045441747952950445
0.11362670232944797
-0.014303803148081646
0.013902272414739618
-0.008367616173371109
-0.04752562137571707
0.05158053888601664
-0.04080360860415991
-0.029985274915412807
0.01638147881985582
0.1134110654442345
0.05364191143634724
-0.0015640153779341468
0.007917092563577184
0.012606101027035847
0.008511111360896271
-0.08292175087601718
-0.037065162309182755
0.09501686537532118
-0.038915956639202
0.008034552550948749
-0.0647437332962592
-0.10570603306655656
0.015471981186348755
0.06008344606051569
-0.06606834706936453
0.07626913955753814
-0.010394378382601915
-0.08460959848371914
-0.07767082297679152
0.017401057594702153
-0.08777826908801042
-0.02633443927249428
-0.02894449985658555
0.002321099643739696
-0.06319764873112245
-0.05869268373871588
-0.0261841377468187
-0.008188343665389243
0.018288953418414945
-0.00876820843774721
0.1039266197959437
0.12338250766424184
0.05343396268356178
0.02303736591887742
-0.10849720949224251
0.016538393484933103
-0.07231494272048604
0.0011876098084569343
-0.07283607128049206
-0.007960297535958684
0.017047268675340784
-0.009905609272651855
-0.07348097651307625
0.015671997165732157
-0.05568124335619909
-0.07373678223384995
-0.00307915051398157
0.013326938327418185
-0.009344579944574187
0.04224037606819486
-0.0032746139285912686
0.005338672870469058
0.07993931731108135
-0.05430380073834076
-0.06092457625521507
0.12106188241060067
-0.035284929576968556
0.015202928224104765
-0.035833947058277686
-0.00859852817710381
-0.003222070752753189
0.017279421057979628
-0.08132060695143173
0.04447832172425543
-0.05821203313269945
-0.009154784556046338
-0.004140373037498787
-0.02684744906851072
-0.01786687678518429
-0.04293601708663036
0.018291071237806482
0.1089207951750607
0.45690688318522177
0.9955550862127736
0.5712729239796558
0.16478491907941606
0.02490935117785458
0.040053639323375946
-0.010764746831022808
-0.07815590313313513
0.06695956432012788
-0.0020365476307694225
-0.02161280209085857
0.002544452890680503
0.001971229639538533
-0.006575533911010802
-0.024137840297397357
0.024552099294329208
-0.013063018841600983
-0.008231547688116103
0.02968336606811996
-0.010522192063813973
0.021334902776896654
0.03477582017695032
-0.0008407819990952905
0.005775995722523498
-0.05735767339900995
0.10009809827184642
-0.06670712853344488
-0.0235703407098614
0.04488733256608615
-0.023616555079675215
-0.023802087747605588
-0.06035074041041083
0.03552574272636807
0.04799295227845869
0.0025137234051518273
0.07383502052213241
0.10579189107581842
0.053566599300226295
0.033071064477797375
-0.10490105661547361
-0.038109765306029775
-0.047889804871008426
0.036330656244894025
0.1498277746655281
0.01800308370169541
0.013976581865395724
-0.11053855045673025
0.020414486067183574
-0.012462997219941383
-0.03396998411330332
0.030407616907753406
-0.023310785072338237
0.04308986691424205
0.0006718400047960414
0.03791190107268107
-0.08538387725251645
-0.008731417279098888
-0.020277681272239854
-0.059581361857666465
0.05457367065611264
-0.07791328413082989
-0.028421773641838066
-0.0038796810873468605
-0.013603847177689567
0.08683302212925356
-0.020329939472874755
0.05433847997541488
-0.08119897366018447
0.019501255506038775
0.038618810917056066
0.0015986843627181745
-0.002037022233656954
-0.0815314151402546
0.09848526619302515
0.009660197933569965
-0.010424008323359666
-0.05414619157205596
-0.021722511534610214
0.03690797908171504
0.011108982614840128
-0.056101838173647445
-0.0429315651779417
-0.0009778935373320708
0.004644211666471919
0.010065669018568528
0.04206708205594541
0.033146725804529466
0.009196682930498202
-0.04895370983795839
-0.022526590064303673
0.01739325869007865
-0.10019238792943946
0.05972039385939009
0.004102899054124249
0.006906449572694601
0.007315161634211544
-0.07187533972766912
0.0764334604958552
-0.04241518439283491
-0.01564428428528742
-0.056860729840522574
-0.031103589287832578
-0.030942327518224913
-0.06343408014204664
-0.034020992143786594
0.023451370038276843
-0.015448506872652033
0.04215963965643687
-0.03940038141014804
0.03459598672673646
0.04307594764141462
-0.009582537688899412
-0.015364672171983125
0.050643545685745466
0.04870986406280442
0.020750500263318213
-0.0002506788879143119
0.014793930909067415
0.11971093920008127
0.028769542746648193
-0.0003351003764361642
-0.004012715306868415
0.022188760694388205
0.02223309217134819
-0.01598336975143538
-0.016429016912265528
0.048710126844602984
-0.03952462197693504
0.015898642678555404
0.0573119974788322
-0.022911063223108916
0.021948521266460574
-0.04839931435607487
0.10924500247844958
-0.047304424505472835
0.01490337977246045
-0.07212884524799326
-0.04569967354640394
-0.025352472869450384
0.04010038380543142
0.027346417054812052
-0.015571298613291082
0.02963671417595642
-0.1300261321442084
0.012504391764446655
-0.015554818280866032
-0.023737347583903296
0.07706302975016116
0.0010734390814416501
0.0007222703204006366
0.06715781957464148
-0.0809440084266061
0.06919213645993398
-0.03642995258857198
0.01155164471892526
-0.051273067248128336
-0.004306714762239324
0.053282923740513445
-0.04801894508635138
0.03942322449752795
0.002058854186168307
0.013733459666027263
-0.05750029202309971
0.0587761636910933
-0.00010326033186932821
-0.08379020715165682
-0.038079411740187474
-0.0327858847374865
-0.019627328109285518
0.07134859342620736
0.026422308653051774
0.02269368342959317
0.0889340762807528
0.04570471557044914
0.06531630419138866
0.0155686008035986
0.005636558735255553
-0.05462648397600878
0.07146812466092795
0.013651951131203
-0.016021282525303902
0.012780801351323916
0.03816364641395051
-0.040244917886817055
0.0053626491125319635
-0.04310399117569281
0.0006744043611690041
-0.0017690527292612834
0.007638612102278824
-0.013044525452907102
0.025007279724084633
-0.06529232599249586
0.10164344888276484
-0.05358444144210989
-0.036255632694098656
0.028590789692865794
-0.05954946802618758
0.08343055089786278
-0.05913077686379318
0.042425128817035265
-0.026441906267361034
-0.0014455260779396607
0.16718258517257406
0.43374488017160734
1.066221460503273
0.4941389303550517
0.12476772415595704
0.09683204912841167
0.09664593474041114
-0.041000154827302425
-0.02779678140832847
-0.02074658078671776
-0.009772048928359893
0.00811291643666586
0.0034949490753282647
-0.12368590623950484
-0.06802574972847711
0.058317328500091165
0.0008165922846184444
0.09010797417180044
-0.012309234650230668
0.0728759834655183
0.006872163819285353
0.06110870882237468
-0.06014921225130716
-0.009576000340642767
-0.046667030443178124
-0.10668728306705351
0.010852763624988349
0.012913417129504412
-0.09130871563192439
-0.03746527597172166
-0.003495332537165954
-0.025824183797017404
-0.006056033880556224
-0.020936685087325713
0.02249298253762163
-0.03966728028839646
0.030876334368241637
0.05537192790305861
-0.0645691931834866
0.06000663806664517
-0.05832063122705623
0.0711104831019369
0.029213227688314594
-0.06732777652026982
-0.0008928402300275448
-0.025187466704602358
0.04498163741228084
0.041690747492911184
0.10044281532511577
0.019298412277568077
-0.07238444705839014
-0.01030880989236644
-0.039631062040567086
-0.0393450562277118
0.03678318892254711
0.04008529798327368
-0.056581590544406216
0.033863820421342554
-0.042179235264677935
-0.1024552094928192
0.04879800997618476
-0.03147603231891207
0.029191593040440462
-0.09215239792277294
-0.0754819474220206
0.04372279378793317
0.0522262628838195
-0.02729533081597872
0.04286957608882304
0.06404487021327682
-0.010317267462615293
-0.004116481984867694
0.03740518171037094
-0.02573426214645423
0.048872736578617994
0.06775658493383117
-0.02841276364630871
0.05660546424798218
0.039757184587738206
-0.05783560273985059
0.06696835364685252
-0.014690633131206055
0.012439761026171572
0.031446895873385707
-0.07131049415145917
0.002737616024277581
0.0689109560123679
0.1078969000452314
0.06429194455413
-0.017464795119563867
0.004896365263931725
-0.04235139811085772
-0.050782898970569104
-0.028141921674603255
0.018930760871087866
0.05376162691373276
0.0424948827805606
0.008482969791648821
-0.12823592715603194
0.022390772817185496
0.00514557351984872
0.13571761875102858
0.002047341038376982
-0.0029831314225812304
-0.02544958908960553
-0.04516716895537426
0.042570908678748576
-0.03611337930852573
0.07031828309454426
0.0028211968678878256
0.0023308299811650723
-0.08029383295072162
-0.013013607634124284
0.003870601437997055
0.07851147330405801
0.06668099727598943
0.008604483528557805
0.0023084564468529253
-0.023763858383946467
-0.06348991265163109
0.06583908397530165
0.0023874593030001976
0.0838007791525151
0.0010423868549970141
-0.012575078440521345
0.014322935443902889
-0.059156704847253716
-0.04277808387351834
0.030724675019700543
0.03396262778008725
0.02380436548960682
0.1072394260075672
0.018681342927712844
0.004304888961173588
0.07297308934834255
0.06459478901367516
0.027419950151037736
0.039662365122389916
-0.07385707862384447
-0.023139299276727934
-0.044129900339374896
0.05598554014547317
-0.02510645826654942
0.051945382664304034
-0.05208597432155543
0.005510785317037984
-0.07264114727675984
0.03635016931553899
0.06730844974295422
-0.08464537218940663
-0.02402423185730168
0.044622862170275085
0.0494992401410697
0.06954350406942049
-0.05345095436305639
0.0777114311377808
0.033899065978249765
0.06795870349663378
0.008163588681787818
0.00858553303915707
0.026046293172398313
-0.0171047854130415
-0.07726014519438655
0.009049965531014304
0.012163431344716926
0.002990040059223901
-0.02198960408585597
-0.0648814519860738
-0.02755205900017592
-0.042444294387720634
0.055245301103025085
0.013728802467705574
-0.0552994995150224
-0.09553289246729063
-0.014207036618426889
0.03771884424880523
0.12255181012882738
0.04540728517761909
0.06220782715347256
-0.024627643908057936
-0.01069946087619485
-0.03120374695175869
0.04391520460777304
0.03555381643584717
-0.064950007112745
0.04611461149156509
0.0805708602593309
-0.033537769681900594
-0.02285920602324259
-0.025343413386732235
-0.08307255020207095
-0.0098228940726481
-0.021187854993235975
0.026065783549291677
0.04077091327236146
0.05919757398959988
-0.07301719470708212
0.021043074944926875
0.03995834213356711
-0.039678945151323614
-0.020436071747498268
0.01715885138109654
-0.031788805915960075
-0.02555695840982817
0.06051110514664957
0.4554228622308862
0.9257243418761756
0.5180581805521033
0.0378046634177731
-0.05736861795193824
0.0611444693457161
0.043552788812201065
0.0494389079063632
0.03686789168625964
0.016462236976665323
-0.02770138839649544
-0.04661047962461311
0.16759043618632452
-0.007381706711250826
0.023285023914444484
-0.08738480652369429
0.009226729884066
-0.052801748673338124
0.000883006651794132
0.022318066695845826
-0.05276530841860086
-0.04048899158633644
-0.017516821636502998
0.013456543375569861
0.030316246108853053
-0.0183274773989217
-0.03105202349182791
-0.04312236595974459
-0.0855706920077973
0.049535787877163416
0.042989521031657756
0.11812723084292368
-0.05563566232354497
-0.031850363791040774
-0.031220861949037167
0.044779825309444604
-0.024724407036500976
0.042192966778766605
0.0767602177542336
-0.05689892214313809
0.024764260098082694
0.007610032813002403
0.020922879254854473
0.01344949791269427
0.04274177597720886
-0.010080844976639712
-0.012867248668130195
0.005988378069538148
0.052278706633546446
0.11261360579120852
-0.04393634271619746
0.024043350380880412
-0.008818961179153997
0.09328421788112502
0.07467539884311065
-0.01141402374583418
-0.03449990931495203
-0.067996887612497
0.0043106749347927706
-0.03756312443717255
-0.054165194561830804
0.010496601662023403
-0.027121507266023054
-0.031077307042265606
0.013525647586836316
-0.01606149876957968
-0.002378350588527262
0.04271913911819508
-0.018402805685210234
-0.0004079399687629587
-0.052420384524254474
0.022298398975147106
0.03282512142959158
-0.040423795486625703
0.04385928105377948
-0.006512563368500442
0.031687168301628106
-0.059015338179327484
-0.01409090573523726
0.0133991052011055
-0.04887837639284626
-0.04401716494689048
-0.04912634199616393
-0.016566051624100218
0.0194755923485305
-0.07123525770179302
-0.07667772484266516
-0.04131903079951297
-0.0006934797102477836
-0.030442707823597728
0.025044289041198
-0.03768443673528318
-0.0045259850729488125
0.06451447885714075
-0.041550176719362855
0.048897093222627475
0.012117415653034477
0.03148378682472944
-0.07331263523784978
-0.021253002550183617
0.03984525961243607
0.052047475832645455
-6.121884727636747e-05
0.09597950494597307
0.004110215853799452
0.03043858106315217
-0.0008216060321079746
-0.03485561203000868
-0.09082820812569341
-0.04921311515566052
0.07275566344189367
0.04542970680882458
0.0032104716802182146
-0.005171006030154617
-0.06364168804558483
0.053733956761389826
-0.047864042313988095
-0.051233225668132376
0.07940669310141207
0.094144495814591
-0.01990623520242832
0.01529736312751083
-0.023125081784014026
0.025818132144251174
0.07256456975033602
0.10837163411308195
0.0019532542898594426
0.11089529979720064
-0.07386166740158441
0.05373810976988711
0.06929028614049004
0.07941003622987662
-0.05167753477646834
-0.07540682475853926
-0.08800152796811479
0.1057298661879055
0.020453750199330437
0.03545340614554681
0.02650828085444748
0.026760624063778583
-0.0368614667912396
-0.023417575127826277
0.029729728418021985
0.04674664237313644
0.044850626466715775
-0.09300916544989131
0.06151878771166552
-0.016996337492436998
0.027998349035562944
0.041873407278824624
-0.00028874848461295813
-0.046745503654778225
-0.019200679292443693
0.09186001244646164
-0.04638772538162181
0.018824108109511194
-0.034696380802217035
-0.004421360840334742
0.03198245650247427
-0.09368018176453753
-0.01432999918563911
0.0637322827398483
-0.005436694867892655
-0.0005054829805343576
0.020301782949778507
-0.1162370627770141
-0.10246797353308455
-0.03075699683317891
-0.05324341980389646
0.03508538074904155
0.031444618373702146
0.03114076046963379
-0.06793079847860052
0.038206939175109755
-0.057677360850558385
-0.041604659622227966
-0.07963456010472016
-0.05897881001722654
0.04367703923558257
0.023906964514258
-0.05009707403418308
0.07861643924327386
-0.052054467899460014
0.04545458218029266
-0.02549031160576547
-0.012657997322940127
0.021492562926750478
-0.024141877530669858
-0.020600261870542008
-0.003500676756654614
-0.046645755210433765
-0.07387867478028803
0.005239454827646177
0.05713504858105263
0.06207524150581384
0.006550843639266918
-0.03185769353264265
-0.051405148840674875
-0.012910275903113666
0.02002947343933554
-0.030976588914273146
-0.010082826350664233
0.0062759072816634
0.06585390089969652
-0.03498246849665854
0.044512167183282055
-0.10343074947906582
-0.0865664702358489
-0.014647908527541546
0.00998372582986825
0.03660585322750992
0.07894820644669923
0.033720657766164515
0.02247675269892714
-0.10634888788852409
-0.03582966737852151
0.0255286879658508
-0.04867807642241605
0.03138549584086513
0.5078612645488922
1.019002124872807
0.5128928974401276
0.15837786002348664
-0.03606637470115733
-0.010045251466815341
0.009303439838230128
0.0495943950808787
0.054912751945912976
0.005308939260167348
-0.004194522235612546
0.01009222059744402
0.02519480742818675
0.01521460044761573
0.007381688353972714
0.03869955493943038
-0.03937141583143239
-0.00817810298192738
0.010759487796595116
0.028811063746893795
0.003976104561600985
0.013267239051601203
-0.015709324783089396
-0.041991298790897656
0.07203201552899795
0.05287419127070256
-0.0047532280454630135
-0.004767183540323846
-0.0004627247048269436
0.0832707641847521
0.05076695542600279
-0.0033471560287973733
0.06414562357568086
0.006961786308750219
0.030153783591725943
0.030540121752569455
-0.060960248272510745
-0.008703400600624656
0.012293767446120955
0.047715138527037376
-0.031042393970470147
0.05028844027829276
-0.10151130408817013
0.010636874778435222
0.008152930693164194
0.031204945939827634
0.00780920111903681
0.08110763156931532
-0.057775863224027835
0.06265847234514041
0.1121459268645335
-0.05532795714923461
0.024098316750405524
-0.055464675567106395
-0.07577928371439446
-0.051621235688169564
0.07095468596420573
-0.04002654205854514
0.143239502355162
-0.009447794278578336
0.03473802527927654
-0.019257811333223088
0.06301268799290502
0.0349646813649801
0.010997456329643657
0.006200617368271304
0.005806244233923837
-0.06705197678438994
0.06727521742576846
0.0039690162804064495
-0.040538729955895324
-0.00894818573337255
-0.04162382640998011
-0.018266104548536468
-0.04240253576485731
0.1818148613366143
0.03242818017457121
0.023486170435066265
-0.05262459278902042
0.04489069657176574
0.028618691277476245
-0.060173016725201124
-0.06759931677915564
0.03858537772675745
0.01781054873913278
-0.05318113659198237
-0.09501139424983746
-0.09714669211425675
-0.027446683415359652
0.08913853416599547
-0.054179954326787384
0.043062065884776214
-0.039586499524979925
0.07348729686637272
0.02015661529666313
-0.03197677497458591
0.040800167188197095
0.04395727746986463
-0.0009089584495744444
0.10705688871191228
0.08116829277248151
0.07590563827947053
-0.008926010843728654
0.0045326072707517215
-0.02669149166396936
-0.06304397778500674
0.033821318638350244
-0.008551615242943402
0.0476733355910297
-0.032306337781846516
0.07157848655344078
-0.07186386092591217
0.0505861459650096
-0.011903877995932323
0.027264981728906637
-0.05427615301485696
0.002435500102301674
0.06176992655508985
0.03460017282329336
0.03891704907487317
0.0651364778777218
-0.03544240784342783
0.05284874183261128
0.05353886663961682
-0.0516243110005161
0.033182577678786206
-0.03589650778242704
0.040574546502968066
0.004101306443274093
-0.004628628370422146
0.0415206213607362
-0.03670289162585959
0.04792229309225076
0.03106850297104749
0.007144552455106909
0.00500481973340346
0.018222820881894156
0.009221902239501844
0.07362571482141167
-0.001788829442149668
-0.01870885627974277
0.04524348264036832
0.029383187423951657
-0.048916509078064274
0.02302717724619157
-0.0017228665117815915
0.051695510349141854
-0.11577956073474355
-0.07093296125415302
0.0011187798557777224
0.06712698950698215
-0.01764647664564677
0.07478300608693958
-0.025234251938803354
0.06270062374266568
0.08490787237446096
0.10950253356206795
0.023102666725186544
-0.05058748016843034
-0.031370199012076265
-0.03955145445537935
-0.03251835355834772
-0.017683007870301606
-0.08212765397574834
-0.06034858731450077
-0.004835202308422135
0.05315183420498607
-0.014758670429046314
-0.05481326282111271
-0.012836963352560413
0.03950915977076139
0.03312013180217652
0.01395681975526973
-0.009810335415663493
0.07306883287174291
-0.05863566811142065
0.021524222848549
0.12099371969402845
-0.04246871823756047
0.0068827905510241184
-0.03649174667644875
-0.04436031397238638
-0.053353095795357824
0.014214878895580582
0.04191018320583844
0.04641823789925658
-0.026799620412818678
0.012392949375736644
0.041177189040851825
0.024255330468276114
-0.08753785554275235
0.005370853596096765
-0.0271058423706574
-0.008141314142449724
-0.010248552219296084
0.03514377226077726
0.06154447281511138
0.0021821550088116826
0.0012645682809155926
-0.0029593364298302564
0.03549019003590364
0.11086368400438462
0.05650244886799327
-0.03125402775604627
0.05760178730374385
0.059413099269726155
-0.03164676323846074
0.02171000109431445
0.02827200627836049
0.11579005025585555
0.4929081430528996
1.0679425037289199
0.4888877659919702
0.18062528800848432
0.029368242004620328
-0.024246527535730502
0.0064215380187810705
-0.03855097678279249
0.0065676386299269
0.005250616764042995
0.06366743583154819
-0.08040985827971442
-0.0440954194302538
-0.003569274498778535
-0.0027557109825211436
0.02463830519518268
0.0626323966461482
0.05270058699308793
-0.0597391302147993
-0.023483483907773443
-0.04059364859491636
0.07517697939478236
-0.0476087149338792
0.030499122666022352
-0.06775146565741373
0.021732564079710154
-0.1031581299496372
-0.039884400905552043
0.03849672625775154
-0.029777813641214457
0.09281040010124465
0.08135816693923348
0.043928354345239
0.03943724706943955
-0.07693432656427085
0.08849326659714149
-0.03896688915067392
-0.04423078633009941
-0.01823738571762891
0.012361328034729674
-0.03462531726558505
-0.013364573578692588
-0.020581413876269807
0.02467592707929198
0.09493464465371418
-0.04000455406938519
0.06877624859606733
-0.10687102456164849
0.013704220722818395
-0.057637221083956414
0.022988102649124185
0.02130204409218595
-0.009012966870561103
0.026150893029656144
-0.02714496211199792
-0.0161395608345754
-0.0008841204834034953
-0.00898187418999338
0.11485870025939614
-0.06777546085605443
-0.009516648015735537
-0.018935446940602032
0.05099503439058678
-0.01343466465559887
0.02605435019953603
0.041587034166213704
-0.05130878038898116
0.03839233478800363
0.03308701180305636
0.034535312030953294
-0.04571997627590754
0.010993007861777367
-0.027467564300404868
-0.0482924921082879
0.009702745746294168
0.004720519886139217
0.02567796254770186
0.0623921949457466
-0.0949984730843837
-0.013368008662739262
0.0054060933849370265
-0.0714787744895404
-0.036753532460791806
0.040196435262143344
0.02230856398896449
-0.04128120159492054
-0.0266421175291149
-0.05435339967015425
-0.01981119614506584
-0.014211832490511889
0.03404649322910981
-0.014847391410919354
0.07038452224976076
-0.030165086710637237
0.10878336214047335
0.07696943855498968
-0.042785973744378654
-0.07699637089504197
-0.0035684241543184566
-0.01814256080176626
-0.03179127570842583
-0.0013164576446639765
0.07146846685562676
-0.06530201441284635
0.03736879477743984
-0.08611882656579795
-0.0012732736034879921
-0.03608328923072869
0.057819529878053916
0.007783515694809919
-0.06733728464360154
-0.036126856823093884
-0.044165519877456955
0.05552905057968284
0.07672436743033162
0.05345894938086722
-0.024299650978243936
-0.00335370585906436
0.05059779504830683
0.054070165625703485
-0.0239644139810753
0.03140045390815074
0.06985731421967827
0.11368495467530589
-0.04934054288658677
0.06221571598208528
-0.0049171201096233665
-0.005183966726077253
-0.05861333404296257
-0.04357803814033645
-0.02344905513227985
0.00011762378249886966
-0.024902486493812964
-0.073404067055226
-0.036551031723342085
-0.021830741377597523
0.0014241735101573122
0.05935204466873563
0.03531229770078282
-0.033020547503898906
0.057263879115341476
0.0721460370196786
0.015597904612548072
0.021853550093377895
-0.13449157815324989
0.004509768982020064
0.046258237506279776
0.10495399672933468
-0.011034008155022229
-0.004930665320774441
-0.12340171030836376
0.08853459472583956
-0.0017650927328728859
0.041546636190303715
0.07438152955513025
-0.006456784995049331
-0.041818225900719465
0.0017980943332607327
0.006673866601417608
0.006835553010591417
0.0010009135868164353
-0.009224111169272218
-0.0885848175435871
-0.015871407386484987
0.09980126157851044
0.0026986090935663407
-0.017773743208266166
-0.047618885842333675
0.0013677487491732616
-0.0008062071461648239
-0.027816030703633372
-0.013938635109358813
-0.0405798677733882
-0.04168989795324792
0.028596311397476495
0.016038446125987697
-0.007190804591982319
-0.026284855024881877
-0.016625503977622132
-0.03681727017619848
-0.03609354943424922
0.019329483597307733
-0.07098111749938633
0.01747215822681272
-0.12274401001346878
-0.0007805085784784156
0.027525052571945704
0.010077967664242085
0.052520102493473476
0.05059065080355449
0.0020974258966885645
-0.05705563699287267
-0.01771951017037291
0.022680693024847595
0.011436866032385704
0.00019573783054649266
-0.025923641196790095
0.016884248538565204
0.014724879084815599
0.0495696127462969
-0.06350540011026184
-0.025221649370000983
-0.011459407501899296
-0.045584794121409034
0.04145045335557728
0.053930097631495866
0.10020455543113392
0.49228130844629464
0.9423922368810459
0.5526554317007935
0.09818588110831988
0.01742862899797863
0.11914991750064241
0.07592059401517709
-0.0004016266887485406
0.06601196639804015
-0.04098517650720775
-0.03018292498200076
-0.005396438016683941
0.05094766861579615
-0.005786801340755959
0.05794407737140655
0.03693579897414182
-0.04467169293391976
0.011723027595326084
-0.024692274853829653
0.008113159560574436
-0.16208937524822106
-0.018099194701950372
-0.02926967791067783
-0.01697835101931663
-0.05850852909784963
0.01283495335235588
0.053030416591432206
0.001101421664893266
0.009588480437368228
0.09579603288097654
-0.013883802993861341
-0.02081896006365525
-0.05846908915400887
0.057737162732515404
-0.036159286207315115
0.04052648188455754
-0.003650599629337798
-0.029305404144966005
-0.05271939923042063
0.13262263230897103
-0.030892733765294285
-0.04310446381809888
-0.048959069444391275
-0.11045238709672456
-0.04525208291951959
-0.005624965935753722
0.05588951724077317
-0.06884303442959108
0.02675885755832949
0.09826141278307993
-0.01200788793356658
-0.07936385569022607
0.06772544868495622
0.027268111103334408
-0.024237184010767507
0.054443061562762754
0.11878856630555622
-0.09625509080026753
0.04033784689156252
-0.049249414754846454
0.00809060388884471
-0.012639919990794588
-0.020298499168164043
-0.0341713106564901
-0.06680598112669145
-0.04377400599053591
-0.02874775539544629
0.07303937485890202
-0.006307716120313972
0.012695609289891536
-0.00011042450338360512
-0.08570337699191317
-0.004300748723687075
-0.021156933378905896
0.014384437060169598
-0.0013469189124104507
0.002692413387015087
0.0521340070653899
-0.002473520304531604
-0.03980238318097332
-0.13181103431091493
0.0162819800879832
0.0359803313682217
-0.10934048123239895
0.010769072673945406
0.044010586183669556
0.04247115802294632
0.04645767575444149
0.029931756950380802
-0.00036427735255141643
0.013157515797279716
-0.10549715102633216
0.025541411567057887
-0.04225889386719942
-0.006465533246242722
-0.002239914079318842
0.12480034192439088
0.010970710323271326
0.06942048055479272
-0.0024554452306032675
0.03134032228782898
0.022890022181795755
-0.0012565259213444607
0.04558554945593082
0.020736608220770468
-0.032079039475623454
0.00542907541564718
0.057236216119473375
-0.016786240041354088
0.02679673607671831
0.0769817989486111
-0.08572228899101328
-0.02398085597205994
0.03063125089242721
0.040502284469974656
-0.006025335552068642
-0.13472199397355875
0.07781097380680312
0.03770907355144321
0.0024120433979579413
-0.008297771076605896
-0.02460050188814477
0.01542123561567601
0.042037845819081404
0.028316415156454618
0.038893283715713045
0.0924980212941316
0.08778884588066933
-0.014175939746960995
-0.05689636455393176
0.02672085287391366
-0.021380265592839634
0.08687011765242132
-0.04179217702540506
-0.04356032738104348
0.13345489256141876
0.05096105535520266
-0.06277393570042833
0.07935422468162932
-0.04369370705115522
-0.041547352875077895
0.04233145883558276
0.06040904581553515
0.05114292772391585
0.05978859718342298
-0.017244504260052234
-0.024247022321688683
-0.060264825036631824
-0.026840498781473557
0.009961671462556563
0.05229248355870608
-0.028802336598280194
0.06168287061669167
-0.005297879255370518
0.01749140766536679
0.10936935078720754
-0.05744888347638053
-0.040908378679531364
-0.014995803275424277
-0.04324964816118
-0.04127037724435637
0.025381588973559844
-0.04144405208119337
-0.02403521845881468
-0.06455876275417043
0.023863701797360054
-0.04733205908555782
-0.06163790298386416
-0.04622797372458204
-0.016662850916383115
0.031754011843233336
0.0010700226114697413
-0.04305763979331054
-0.10343041842097547
0.04102737514491611
0.01678907144546625
-0.04835301570231199
-0.09458054696114385
-0.04894295917342282
0.0020967981224593027
0.019476826535277547
0.09747026097632043
0.023364344019889335
-0.00888449847304698
-0.041546458719913346
-0.11733267472012261
-0.08404466188885351
-0.013971789711838668
-0.03471787737246621
0.012474033803131808
-0.0163831149430415
-0.024451685867336675
0.051313103536757255
0.05219623100884161
0.0024085179539125173
0.08003285506310569
-0.031196588595305687
0.09336865593148587
-0.02104208159883201
-0.007170683748114523
-0.1090275431711477
-0.03334701284328236
-0.0074864997597653
-0.06075259797946191
0.02587190611477321
-0.06413346695724814
0.07895526650083814
0.5974020207508239
0.9773986338246791
0.5658708724363696
0.13168434653776895
0.04688962258173787
-0.027612597852003
0.019309109484554443
-0.04567618667521094
0.015953462809418922
0.013452202093243562
-0.04000813586258584
-0.026696290417178133
0.06631953892929948
-0.027181657593829213
-0.015107237677471796
0.062458628427235034
-0.056726646740518506
-0.10130293386131158
-0.07541289530650493
-0.07325597479749442
0.0036985867187046446
-0.0260214945868673
0.06625216377510056
-0.009810356448140123
0.00030385047421204706
0.03227225670240344
0.018364593509618107
0.06566500795734241
-0.017288033796599666
0.006076463237277617
0.13274780233153363
0.023029497660628447
0.07166858010931525
-0.029906922505772673
-0.015358083382353373
-0.05117368289238288
-0.06260101371008342
0.022460696723761553
-0.028206115255874322
0.07527639670899865
-0.03542671752914051
-0.011323456460476814
0.022246892045851344
0.039395142198830696
-0.034108540779028904
0.058826254492247876
-0.09884768340432815
0.024042489445579445
0.008356121345231737
0.016283305412687073
-0.05351790117357404
0.007836577759655563
-0.0026403145454671046
0.031402433398088604
-0.06205944250528576
-0.03417558782083627
0.03976608814207453
0.0811344908523813
-0.06895545303977417
-0.019792264052696105
-0.045267530150627136
0.017955905173236236
-0.016858759521418226
-0.013458624992439848
0.06325797666410914
0.013670446150077346
0.022940194902141723
-0.0523333170488023
-0.034858414435646946
-0.020691849480376435
-0.06293015867208747
-0.05862373682624546
-0.03488331924763381
0.02307297037945198
-0.027303160159014822
0.016517909851430264
-0.025675471719490542
0.03369435593725954
0.07033911774480557
0.03277451230879516
-0.058289225270628256
0.023288447893501506
0.013108077379050781
-0.06888845954931563
-0.017923874791314683
-0.07906660951064262
-0.040381884525099776
-0.03297263512456237
-0.018489291633338175
-0.015182766746286953
-0.050732965417955384
0.05177784163768948
-0.007887401645370487
0.04689803926985949
0.04756796471361112
0.019274321121962253
0.0003917778489601432
-0.03131380345496581
0.00046786333239814433
0.02487892133719104
-0.0681716676214977
-0.04791251676667793
0.06869836943356611
-0.022352259068389
0.007461382864114398
-0.14310794502133878
-0.017943626845271683
-0.030407448783765903
0.02320521409803214
0.03952942702133529
-0.02727892697906481
-0.08693591153866864
0.016429930835390644
-0.02131258261152687
-0.004942514423624873
-0.06624607618834985
-0.025773724875258048
0.009187091531208115
-0.062421409059280175
-0.04725613853277286
0.07016592059045057
-0.030651273507049805
-0.05162940170794317
-0.05119469041530002
-0.0651143859811606
-0.047240868962939234
-0.022003086846604465
0.04567984547115404
-0.018185747645595014
0.05914452438827442
-0.05600869274887026
-0.027360195821788127
-0.00496761475952601
0.001154913326717081
0.017224485942983103
0.10709955621058956
0.03256630335629822
-0.019884540080272572
0.01757811221359916
0.10906476194966071
-0.02763357244114097
-0.028836100245777513
-0.04418874159591956
-0.012411578002989731
0.024665441835281243
0.10145185586028345
0.03773642833690222
-0.004394515794359704
-0.05082663201218945
-0.03036213680055402
0.020204881936819765
-0.047521980605696665
0.07839467719937394
0.10917184190469441
0.026980025197910915
-0.10311142343299028
-0.0018624984132108698
0.01655020637155139
0.014109058000767184
0.003162812175870103
0.014835135526395772
-0.00818267513809323
0.029445921394439897
0.04733181615882058
0.027964152090369895
-0.014025980702533861
0.015986175800850422
-0.06383371097359804
-0.0030622100986096093
-0.09937825980717364
-0.06214529118065955
-0.0034512723447437926
0.03974194192759145
-0.08791311232526232
0.008192496901991019
-0.05578261771094706
0.025163158241025524
0.030459417695884224
-0.01871587743960222
0.06414228491585906
-0.035767280034394104
0.018270776895861388
0.045950020128516955
0.06089411539520012
0.0612064729521012
-0.08907322478075573
0.010323618683533124
0.08768033375773043
0.049014539726754486
-0.00994435194183547
0.061415381644944735
0.0686835329532019
-0.08584508912257809
-0.08499735566519467
-0.01807243224455172
0.036366700165565126
-0.021876055967176112
-0.08477510178398391
-0.00987391415351863
-0.06217352957631555
0.004576096232185089
0.06703768154988751
0.48457583092116085
1.0127168678046676
0.49860586609187263
-0.02633613038600094
0.01920630748253166
-0.014608961462239646
-0.07211318070514817
0.08762023169685916
0.010913458837588935
-0.007154081065106938
-0.12011214981772236
-0.060865959818940676
0.060391666025041014
-0.030846108094124337
-0.0007200050555046757
0.012124852219792348
0.03328306714276687
0.056706419331433625
0.05223924556125932
0.036505946643586806
0.01955739575461883
-0.05965203442984338
0.009752872514011489
-0.07771627106586698
-0.020691301234001713
0.01560609081425734
0.0750378730486219
-0.04194449502365241
0.043785699466723935
-0.0416527595169929
0.029488402587103432
0.02226485501758131
0.039943158556454646
0.004575000509353679
0.03559145163774787
0.06350924440511854
-0.05984948612750273
0.04388470875177922
-0.021475965673912287
0.024412677580130254
0.08998059822674949
0.019740277124207662
0.008896726178310051
0.018005887524841672
-0.04530006816331722
-0.03077509220988356
0.05117681674368424
0.056806365362213264
-0.051109222446727824
0.026492029657537237
-0.0005996348242343763
0.015009946761561636
-0.06900929551005401
-0.0035905836951750647
-0.011973609682231504
0.006003749186632959
0.04731957366155989
-0.004962382509814463
-0.08112653749822196
-0.04212276374463944
-0.05472395973783459
-0.054277042929765
0.005107491225914349
0.08200836734103412
-0.09770731181797437
-0.012468187230940349
-0.047925276829912426
-0.026159709915820367
0.009419277229228378
0.026419759477160683
-0.009451664811478444
0.012866598614895608
-0.04082160469314181
0.022505803158462526
-0.020949750070351783
0.01657042568325814
-0.00022655993509792646
0.05190133239787195
-0.012127242409307818
-0.014647549414146192
0.035391177747631834
-0.01499860728071052
0.008671884597718824
0.022189124723668477
-0.00044254027593818355
0.015247666433745194
0.009337949973604012
0.0031618006724640846
0.011457855570899213
-0.0031181884105130676
0.004982398168962111
-0.0021772587894657827
-0.038398178412686015
-0.04496728715776449
-0.0030994794301306187
-0.05887575400055317
0.005857591966705665
-0.02278199792654372
-0.059655123950584955
0.05626349689372121
0.017774367271199847
-0.006310170345086835
-0.01831756323845593
0.006045006929306394
-0.09835049078141653
-0.009412529634657232
0.02283205760557895
0.029082689972267924
-0.03541685212072845
0.03416079885317789
-0.004477856039220716
0.016497714626495817
0.051934368291045266
0.062619111685139
0.14166882913078177
-0.020621316753930405
-0.09453600411441754
0.035117094944371784
-0.005501259231814802
0.017565304753798004
-0.01149299846254267
0.0007668500671340648
0.0019775336634991736
0.05760433321262551
-0.023091359190967383
