ecg
-0.09666086621769032
0.008740482592850223
0.04516487164061468
0.06046519482380852
0.05892355184552241
0.10864566246702478
0.00741644277576022
0.011146652941942121
0.050814488507272715
-0.060326924773576186
-0.0723297725848089
0.02316822404062434
-0.022013431720484047
-0.08841209171575756
0.022333936801049694
0.06558731454238789
-0.03926643242628927
0.05532630146713252
0.07533666375507639
-0.08974934098968697
-0.05477449062209762
0.07004814486249651
-0.07807034059049639
0.0016161449865757013
-0.009312540879223365
0.03671018548265031
-0.08822785865454474
0.037236421795882726
-0.04638584742234206
-0.05133920335506115
0.07061029724063642
-0.0938053536949153
-0.07797967517838789
0.032021646000626146
-0.03305605013815683
0.09864871645220669
0.026970584575312775
-0.043032420429024144
-0.06142862467332937
0.03149624007822725
-0.05449294307996251
-0.013937194139414308
0.008931245093780254
-0.029726051932855813
0.08549142852486133
0.12061651860866443
0.032439774708750806
0.0034596200237454974
-0.004296564799162165
-0.06509800752852082
-0.02576429757233445
-0.05181826136466466
-0.015461859546016525
0.06015549364405962
-0.03416203113657136
-0.01094180307043242
-0.003318645767660055
0.023206594580906
0.1306423812595063
-0.023437702936651306
0.04002121975019096
-0.07420023950709217
-0.004843823152064674
0.05487731330872663
-0.044081169204612664
0.007420605708819392
0.05802426814451506
-0.06130812819460233
0.09518016363694277
-0.014434599028011301
0.04658579037394475
-0.002140261876620898
0.004738469222512174
-0.013131139750566288
0.05105268360584159
0.032099098690138585
0.0013757447385906382
-0.01247455718658343
0.02794081763795674
-0.049121604642201354
0.015396021887799472
0.04538987463189553
-0.08029644493142589
0.03891328666579963
-0.03669224615303859
0.010275169407038598
0.0517747418730687
0.014219852256456967
0.007641252207371875
-0.04275623294631373
0.0703182397398848
-0.04895551817776138
0.025672224589731615
0.03677209268277234
0.12967299579840402
-0.0064876057359419
0.07151995494982742
0.0041428085467601
0.034444968881718295
0.034162243400061486
-0.007998380372710343
-0.0005673498301069931
-0.04437441123083862
0.031962865387997474
-0.04832086267268872
0.013343803441750155
-0.013027025719229385
0.02162275348671573
0.04331402139539062
-0.03179404684381973
0.12682137136389268
-0.09221009803904633
-0.03230118580833038
-0.07570944743970061
0.04614391298597698
-0.05187670396746624
0.04818654150447717
-0.028919490376853763
-0.027059884919234015
-0.026716506330467946
0.07964588995597342
0.03489109079525948
-0.022371322923646558
0.028097262885951657
0.05303647609479918
0.06698813974518639
0.013289104719060621
0.013297289277540286
0.022360663721124635
0.020148366889427033
-0.003839913042540029
-0.06880285273869984
-0.020235034801248105
0.09392194316422829
0.012499598181533416
0.050187065779262255
-0.0498769831306347
0.022625099278478455
-0.018476485561587746
-0.028703451003995708
0.06926789011997107
0.012048755075272826
-0.03136000341710117
-0.041111718519250745
-0.017711746443376936
0.015088949025787163
-0.030455765752345085
-0.0146444614402594
-0.062453722553990065
0.036906960552526576
0.09515578925923741
0.004377607635689354
-0.05419480949158067
0.1433384831432817
0.4672312547676133
0.9766273347617525
0.5731745955687446
0.18815952979928846
0.03469130770756717
0.00798231214008577
-0.020281211881230648
-0.0247614074212454
0.024225611687443267
-0.03093484460951203
-0.08274058531173559
-0.0059320112582141255
0.031222749714896254
-0.04351911298552039
-0.019788870275445257
0.0010828475556196
0.032556846168239915
0.04670014314239685
-0.04254161023229604
0.028707733934111825
0.07579073767850847
0.03698109196642728
0.02890881994824472
0.021182306894634847
-0.003713103297146163
-0.01401822491463241
-0.05007825337717221
0.011570905993037037
0.02007161902642944
-0.009093100174234666
0.04416520627297289
-0.09054423111111597
0.011678267758248224
-0.037194269926684745
-0.023412314739916205
0.044165313060243516
-0.08402225741388153
-0.06847414585436949
-0.05937781568416775
0.03893632698423502
-0.0200049455771477
-0.012345283282775111
-0.017356301194621504
0.0020732327083020584
0.054270953651660785
-0.07951241662736853
-0.013085382220924764
0.013983383177705554
0.03938728560805088
-0.029923515028091416
0.04263307657840924
-0.017147504045641235
-0.04077747276815155
0.00422861986577158
0.006705878265220281
0.07642097993319824
0.040044153352848263
0.00810904500810479
-0.020337682558180494
-0.019373504343153963
0.032923899568211804
0.10779683182548308
-0.04510007141186677
-0.007131802523857471
-0.009858477337325821
-0.05239902357533402
-0.06554646747138215
0.0716063198500815
0.058005546425561244
-0.01693784047437266
-0.009150066199128259
0.09911084339726484
-0.08501864283756884
-0.025835381518382307
0.03394241918734003
0.03998840940581226
0.038195468827363306
0.012157792798166644
-0.011220105483661452
-0.06462374057052632
0.051716305527489285
0.0077872870215503105
0.04298768499534569
-0.004474069354078242
-0.0430305156304637
0.12405737286650459
0.0636911668368004
-0.03197791489731434
-0.043086689714581364
-0.035461143855081596
-0.07724433301719233
0.0022571116657263183
-0.04677976558186963
-0.02434135808019766
-0.03496658365481479
0.026107911030482902
0.09415241525869303
-0.018999984314310076
0.0650861309280172
-0.006236438242411014
-0.022647080985894144
0.034544062615986436
-0.06051002580777118
-0.08652667134374274
-0.0648012238692827
-0.010160006507496516
-0.03784146654607051
-0.06360218697241865
0.04902216605375724
-0.007315844675320509
0.010259961125194153
-0.023413337635010845
0.006152348988606438
-0.043560676910139255
0.003589314603408754
-0.0030702120413992925
-0.011964836965270892
-0.00690273847420929
-0.10191952182194182
0.039760464594422916
-0.02081558636533888
0.09446058954512097
0.05935595683865744
0.0709060682538216
-0.14208191180648183
-0.04568867309351072
0.08951305097009415
-0.014575569060764383
-0.03387059571541068
0.016070214006091123
-0.0760424822527767
-0.01467738575862972
0.09059741902550711
-0.005394785764072967
0.045037485334805685
-0.021927111095078066
0.01819812486144239
0.030777701437913148
0.013540521415610879
-0.0277357001515838
0.04365253970721836
0.06849484120569554
0.040511931699785314
0.05693853037110622
0.05284760865248794
-0.057272244624763005
-0.07345208661375054
0.06426668335478501
-0.09694718595278445
-0.023045469858180487
0.02518657660581322
-0.028611256906736122
-0.0793458547188021
0.11873969627385988
-0.029696198274353314
0.027545911689599918
0.024440528449488887
-0.023960938889850993
-0.09795419865636583
0.1713171449900459
0.6192601142878049
1.0142424448840388
0.5545657365311929
0.14640721930879985
-0.03530065878967696
-0.10235947758820962
-0.010670056040341708
0.04256751440484238
0.0020183222191411257
0.027044926995229465
0.03091728076632961
-0.04430197743523011
-0.00855043298284759
0.004104005440670037
-0.0015371640789078754
-0.033753952387102854
0.07547386652265392
0.025635439221957657
0.008697164860631509
-0.000799677158100807
0.042192225254771724
0.07500379088946904
-0.034459363048706296
0.10206547378373526
-0.0026018965929713346
-0.008356455389075482
0.02274205429490695
-0.00864396114642278
-0.016668284474155512
0.03525777197885387
0.0186144603428072
0.04366688805027462
0.040213506436053204
-0.025237004905484323
0.08206668874981567
-0.08404776054901414
0.02164950078483897
0.01852332540455893
0.07661187969243716
0.0050815500814399076
-0.009809091386365178
0.0691825320766535
-0.015261480994181856
-0.019434345901544865
-0.03511590418569748
-0.0304138442299591
0.06246754622380627
-0.011948682847231652
-0.06649528390817865
-0.027301070155605456
-0.05779468883496808
0.03165498527680359
0.07967806194670496
-0.05141992786547848
0.047663549790883816
-0.09132083932443434
0.04297700917320528
0.03220071414648123
-0.04581187437949577
-0.06997335229304533
-0.06359955649471738
-0.0036329399948508306
-0.01670540437835621
-0.03496099081753514
0.030620442656930216
0.11463117856547583
-0.051827150461553756
-0.05362546948700132
-0.026204918641058828
-0.03880379961858468
0.07956875206831464
-0.057069194524978696
0.016164822828387687
0.01048681513691288
0.05245874060546205
-0.027137817312801377
0.08656874793935948
0.04789140834613412
-0.007650944702241098
0.03458348334895433
0.10543922035784742
0.09807116048775555
-0.041860395702462624
-0.06284265104135546
-0.03404354983707504
0.05747498588490657
0.012099776526023053
-0.02114556489608556
0.0589786564491577
0.08976055284223466
0.027112266611964392
0.04902840518656149
0.02159729748689075
0.015275513481597329
-0.030731701674610035
0.029419620937077458
-0.004016558141387045
0.023950659599431132
0.025101579174808427
-0.09050577820875305
-0.056363675048601694
-0.04987715183954105
0.06167321132809456
-0.12399701918265825
-0.032935333820018814
-0.03649025299259875
0.04293216603551905
0.03552572729991035
-0.03742827242525908
0.051672187581724406
-0.008269506334521668
0.017931615129869904
0.08331919856734596
-0.0877002266159682
0.00037441790870519604
-0.01865968101457126
-0.0523909883565814
-0.0635082719970524
-0.022312043765428627
0.021232184383513528
-0.04885869891715634
-0.028170887413966755
-0.010068881237491676
-0.050671830720670885
-0.02988848538338524
0.05559238218502786
0.09087037095405465
0.032951155720004746
-0.002539689566396896
0.06419285947399982
0.03726116239906468
-0.028716750203463065
0.00032837388913493915
-0.06404831435557289
0.04452058915757106
0.10645557320633162
-0.05396005211532773
0.013040782230426849
-0.03812997924796666
-0.04394344333464975
0.039386754736693334
-0.03155637292684238
0.025891897485000877
-0.04721349441065173
-0.0008610096437426326
-0.06027414124821454
-0.04515186424877261
-0.0440190521347193
0.041687633921052264
-0.04227807558909942
0.042602920844460365
0.009248211577774881
-0.03741078446719367
0.09777354491122121
0.5732428247661776
0.9967023246258256
0.4738006200112063
0.13152161028751688
0.06488395552411362
-0.01776728565766351
0.050953667386081626
0.012325873105183183
-0.03364541717576707
0.09845087616784465
-0.004332031168200583
-0.08290798697949714
0.01461955117721735
-0.11221501859427499
-0.016240984828801368
-0.028399996259789152
-0.019713475282681133
0.006852128081131084
-0.05492086121283621
0.06486714747459042
0.07531600919517306
0.013856555892735798
0.019712025213842195
-0.06482316146847396
0.03775963152601265
0.002856728548827776
0.10210282473696917
0.07180096334832657
0.025305773674098492
-0.030583102977375543
0.07276658099225063
0.03977067191976984
0.08965587432431432
0.013508801920132794
0.14026100659304847
-0.026808568358406254
0.05187193350312994
0.014721348460894982
-0.030271425085960493
-0.05724506706968905
0.010641570545701532
0.05578445216774645
-0.05865245416416368
0.07649181713963599
-0.045248042421890934
-0.05852732039968685
-0.012572579116534595
0.013885720062714095
0.05485916024494332
0.027112352457917894
0.04800351520238744
-0.013910310572499094
0.056747497878523415
-0.027259926688379944
-0.0819619540068152
0.025632182294211093
0.012862033067300932
-0.03282490504528271
0.022025728929339652
-0.007625024977599568
-0.01924135430783026
-0.04219116288122432
0.045856858531567346
0.009493394667239089
-0.016878756874616572
0.009791815542786717
0.016381745278885897
0.03566330575222609
0.027431985887327533
-0.07354812683638205
-0.0020622803574508477
0.04047115894499357
0.02362615777572112
-0.05642688513987448
-0.039276347690279684
0.005230501536660724
0.016957757235273936
0.001338353771224297
-0.031736773903063925
0.006916136537319404
0.03953316464804248
-0.025307946068787352
-0.04867967152358133
0.03258846510208462
0.031907379118290245
0.019941087200342877
0.00021465776319740603
0.03856205789175771
-0.03306521228688327
-0.034785991624140575
-0.06914036668158753
0.0579705287189993
0.031300417843696214
0.02476512046691049
-0.03822266482647033
-0.01761276060424632
-0.020704434862135676
0.06430458197545473
0.02510089757474019
-0.042498725905330804
0.07752469945369846
0.018900027389760765
0.008242930733586284
-0.03614517230615489
-0.020550874603970596
0.061069656189026114
-0.028163225509568252
0.00019889525534881903
-0.009318300778198124
-0.057230071255162274
-0.03957891472342434
-0.03987997348611086
0.026148133086215847
0.04765291591584723
-0.028949791888529433
-0.0615930035620986
-0.04305868728721409
-0.030580322413218522
0.06004465754267427
-0.02013804230806089
-0.009817433318636846
-0.014597255306427621
-0.06506133622799151
-0.08457491708018562
-0.011333167362475312
-0.012359380901633207
-0.03834704229184697
-0.0017845870812973213
0.031925965615191274
-0.021826214698954776
0.015702285332608236
0.013967933327840838
0.0010113051211142865
0.021282536282956854
0.08024878613215669
-0.05776622554853015
-0.07887123400736958
-0.08928081042616506
-0.05829667642154306
-0.0640355068223071
-0.012132706342051476
0.013062655966984872
-0.01361098138871342
-0.060230709547675926
-0.021815184408012285
0.016749242535104857
-0.0246047652628745
0.021086320031213635
-0.06755994801483158
0.02069205676521939
-0.02342087273021887
-0.0031546724570196056
0.06091350852004776
-0.047808584954548095
0.013607796282843946
-0.02723356125132058
0.006162497442836901
0.03080653303539609
0.030987748736316153
0.0010326744752865158
0.587080478405121
0.9691337611191582
0.5087002886061719
0.06764905434894344
-0.07338372304031686
0.02332286470887526
0.05942614856475978
-0.06943565049249746
0.0002316430957920039
0.04731820101552165
-0.008584728504136439
0.07346629338766451
-0.04680832044415589
-0.07023346773688695
0.04103035983034889
0.01656481923032148
-0.019624501420832607
0.03473356564912715
0.02542445115846323
-0.026481634229136415
0.08115856154712581
0.02754253804472928
0.00316287171464193
0.029280812032295253
0.016521674868381873
-0.06748770744070358
0.0167458902955042
-0.07410138477927422
-0.0044047113272935685
0.028456176493363097
-0.018501568521544075
-0.06133550770153421
-0.04885743671566931
0.0062615207381728965
-0.02658702482386099
0.1247726009198597
0.036062329343035555
0.05926245080109558
0.08280592375282173
0.010549834883936909
-0.04760578603191548
-0.019176666453991575
0.10738943137284417
-0.016917027129609644
-0.050356485642250086
-0.013442432144186146
-0.03744473896547958
-0.07615682906822985
-0.01044591999651901
-0.06210981806943427
0.01603760822952593
-0.004813151672405293
0.04369816493527187
-0.07975377796431718
-0.01442558945989479
0.023850993503709672
-0.06346600183911504
0.10394198182308652
-0.040167377866542606
-0.07183174959824117
0.06450513652234308
-0.07667510014967915
0.016258880679539896
-0.002965025758367465
-0.030922516811944176
0.033612237538303585
-0.019809089189434026
0.09516612398349361
-0.028673182366037192
0.02500486528817373
-0.03067722352436236
-0.054113785639164996
-0.034558493778423384
0.03487845470481959
-0.02531249624015542
0.09278390063546049
0.015199654695478513
0.06106035940821948
-0.02337640242736343
0.013897315284961865
0.07284023125922083
0.08408907994082897
0.02514983658940826
0.08053049838020855
-0.07098200935420017
-0.011526180966262596
0.07147222072782526
-0.018251022142214825
0.0695037724305226
0.06501382991980115
-0.10440606328402527
0.03240157359196246
-0.029850348325691962
0.03169084784745271
0.017039004612154008
0.026043733527202254
-0.09872723080196255
-0.05492522153860026
-0.01749478799975906
-0.054936157733351434
0.01993845279253057
0.005272251156833233
0.03981690116878092
-0.010144104165539194
-0.041996249651318276
-0.0015964847463263616
-0.11904281598915195
-0.01321444714180495
-0.007178601815422493
0.014345761550973016
-0.0348181705902846
0.019046284282708974
0.09266715709288607
-0.0698379661649579
-0.000507822221823146
-0.012339283965742263
0.04637962289381051
0.0372886425827234
-0.04931111588845308
-0.042351442466609435
0.005944044952756283
0.022225370381110596
-0.022973320646507173
0.049604747780927515
0.08642513504781274
0.06100843742016171
0.031685054728698
0.07764740974791566
0.0787917523535168
-0.011977371944168518
-0.010465657333866495
0.05329259970616691
-0.0845616888832973
0.09931585917092343
-0.03575184953339142
0.018931410130752273
-0.06491813681674985
-0.0067663658498168236
-0.006309793610004093
0.0655218684347563
-0.023103206495247282
-0.003436512771504105
-0.0541725272847886
-0.005078545611719686
-0.10429729304567106
-0.07384844589820905
0.07303173211442046
0.00219010388025779
0.019747281362655966
-0.00043187367128924857
-0.0809320372991852
-0.05912746188124734
-0.030855822350620378
0.07926166484087342
0.4941531844002384
0.9609059918783298
0.3799471935396521
0.06657413874619605
0.06677334446800337
-0.04283745636744871
-0.006310502597830148
-0.015055540823110511
-0.053839808417208694
-0.003313421195833754
0.14483427627621753
0.07822591916977394
0.014890558668365889
-0.029060309830088338
-0.0411324601323248
-0.05210134017663337
-0.05516522627446986
0.01276169187806106
-0.01703908848264819
-0.030941495511603762
0.11634806576023271
-0.06168784065600685
0.011560545082890476
0.0821639325202693
0.04918440131472543
-0.10753164053995695
0.0039396870368077685
0.03784681647000466
-0.01979269040922683
0.11574821450529493
0.002065364196401827
0.012600289293695735
0.01024189600922779
0.017445305670509226
0.05834390157224256
-0.011822216641583548
0.009896022384428592
0.01694979388462401
-0.04744154011341919
0.01159916489383081
0.014869784696707114
0.01925376114067602
0.020081525519764054
-0.021820368428916506
-0.09752669494048488
0.02499461736085714
0.0035111001007644468
-0.008561666260953999
-0.06056751501786933
0.019253339900952182
0.05698651960858924
0.038635761723715224
0.05650416874589895
0.027558287416189448
0.04426085332446844
-0.07134161386926956
0.03457742906808796
0.009081321552169183
0.04101721510127926
0.058163081933181184
0.03860519632037241
0.05744726289530908
0.06300230579695257
0.07440336982025453
-0.014607761766619643
0.03389581872595106
0.02408363502063404
0.01564163009657718
-0.023168313816833357
-0.04215680004966636
0.05235261308973446
0.0018268420226499283
0.05791545743388027
0.018436620624070546
0.02561923045252612
-0.05581195711600802
0.005137863988845492
-0.049837576611384396
0.047929213904421286
0.04225810789346774
-0.03990155712035126
0.043901691976117097
-0.027064075733014722
0.03931345419560282
-0.08274838054332706
0.021882826415360292
0.048433067842987704
0.029819402923195605
-0.09734239218701701
-0.05480522481284083
-0.02670870628323696
0.0012250665581683053
-0.07708831527346742
-0.008258856103683833
0.018367023773883714
-0.028073970738898835
0.02169505272107304
-0.007909618495078123
-0.00023548618484510168
-0.048751724438647726
-0.04679082050542057
0.07679736375264183
0.07337045129887759
0.029424585504705322
-0.03309734539547076
-0.008941744890048684
-0.021742994617492892
0.04840167665053997
0.030551139523946683
-0.033481537702962964
-0.021943461196750166
0.07244194962929748
-0.02472357076573385
-0.038032643016929754
0.019804590868130006
0.02334713286624156
-0.0358686329854438
0.04737990055357502
0.05147743680498027
0.023880611887540443
-0.028580801360961573
0.009431594127198888
0.026748856653524663
0.03179145386184611
0.01928449919084406
-0.015915073683671094
-0.00012890122412948838
0.016099316551734914
-0.059541682865386795
0.01553439811794654
-0.004261850984164635
-0.0016553900430562188
0.04571076268148518
0.06534055889867463
-0.03882075498106198
0.051450416852027475
0.007097369589995687
-0.04862953296288272
0.03355179666434375
0.01754359987216329
0.04845244446963787
-0.06320618014567937
0.039778554800017706
0.02468300381313558
0.025962212254832286
-0.05064660319154588
-0.03411426845639582
-0.0002669529029355492
-0.07678537755810977
-0.05128093293809499
0.05772583465839848
0.07288017935656559
0.02421518127678652
-0.012850547948161501
0.06925354023767946
0.1502816341415883
0.4185765815658644
1.0039976736320106
0.45145430263100167
0.02097389728494352
-0.020336124687500026
0.014086616478632933
0.06701882393125881
-0.028389916983743674
0.11241439232349729
0.053675203804749876
0.012103083244551519
-0.032645368178426525
-0.028585667187309673
0.051598292026411564
-0.08887019908835647
-0.022447109113220173
0.007049321205012844
0.1309483442040417
0.0458699526823777
-0.05410089007687783
-0.03906362342637881
-0.03873440928424482
0.046377008762308075
0.025368122772699654
-0.002637090669186517
-0.06971183248037609
0.005884539762934221
0.012891238859502966
0.04816223292941013
-0.0644761143745082
0.07028835711982247
0.08888196937339066
-0.0012438999133971345
-0.0077431869535191395
-0.0061026294599451514
-0.0620447008378351
-0.022444267783415378
-0.011691369894822772
-0.06319338530519274
0.023021659066366166
0.018868363172604517
-0.06672741204673174
0.10002658559598848
0.07191736269668672
-0.03814563062713231
-0.05141443077361644
0.03166477920292975
0.10004850726656767
-0.0242939745261874
-0.006762455681847497
-0.03196375818005417
-0.08149882664421741
-0.006058505579789378
0.013028471452339326
-0.0003154668058115305
0.0021917089404053366
0.008856552184877601
-0.04834321497531247
0.0074178889653387335
-0.030924523124269195
-0.008500967349136797
0.07266799077382097
-0.02408996236074123
0.05116537949568039
0.005069181114997184
-0.0550368711131061
0.04258191281677905
-0.059895973981608674
-0.01923379235813303
0.012205447481616359
0.00025303610862998337
-0.11648507604703283
0.01836860103445631
0.039039561809590215
0.006604501484550374
0.007032746152266053
0.019765747353609003
0.03838980787959026
0.008326283591317258
-0.006316394282208231
-0.006570843105324824
0.008241571931230969
0.10084369894737195
0.022579190238410807
0.11703540761039527
-0.004415818076814018
0.12157924143859611
-0.004870037523054861
0.00035969472860414715
-0.0063748598135991074
0.09771933961555018
-0.03803036246236628
0.001817992273634182
-0.02464171916101459
0.008396678127118553
0.05226028629406888
-0.05321106823375942
0.04362008471002037
0.0634203822035496
0.12810026169154845
-0.03491244811289277
0.004550698677320346
-0.03164864415196072
0.032189528666741886
0.003952963302229056
-0.009585033088669752
-0.004587377872728814
-0.000383315266252833
-0.044689668867402686
-0.053834380946495654
-0.0014494489803530822
0.12532035706781908
-0.06403695956181175
-0.057303761125688184
0.011398794110456774
-0.029645591108811105
0.021022054340652838
-0.06974329027508558
0.03685574655015865
0.010081863227305476
-0.15905932507538176
0.008302346378974304
0.008329686083776424
-0.02866284353942456
0.026437905101353045
-0.1048564550460462
-0.017598668313287026
-0.06397603920663941
-0.09122842248314611
0.01531918818386985
-0.00918629126379121
0.09098321574925046
0.10746242548928338
-0.02301793663248704
-0.02792914711514413
-0.04736466330211609
-0.007216629943636946
0.12227466795443234
0.0026867389258028104
-0.030928229317732495
-0.05627825396188331
0.0432330412210379
-0.012397487672096153
0.020140276888797697
-0.0021293960782143885
-0.006463502193491073
-0.022416852351767193
0.061111438430144396
0.002388905651928307
0.03305773568651234
0.060970391988675376
0.002300751329100668
-0.015127176197439208
0.03738838279194306
0.06514448322709304
-0.03946996351784888
-0.027487290792645398
0.07153571949771345
-0.002607166423959187
-0.011662220759960845
0.12052147880854816
0.43414532564646363
1.0897108040976193
0.5165003699925772
0.10151045755810059
0.09489179176837825
-0.03043648441134003
-0.020382887339591194
-0.029896500223417794
0.012971415852224378
0.06390137076021896
-0.039023979027245574
-0.027348568049346003
0.11269503032866351
-0.07249886530018146
-0.008467741879354784
0.04087326411144791
-0.07100138712059734
0.00305720876253243
0.05231125967196807
-0.06775677567479736
-0.06853982989859136
0.05858396252188772
0.010517481349006132
0.06229811974859605
-0.03040690767081061
-0.00844700905355856
0.019213628117568854
0.004624393320130392
0.05522677420392147
0.02413469847125982
-0.034394807227164835
0.03515023919610497
0.009595524062369774
0.01901485637920644
-0.058296657788648655
0.0004885278133796642
-0.08579297628858712
-0.0547170347851252
-0.08691183611343674
-0.03108098108955673
-0.057089936579213164
-0.03664667340606568
-0.00842133094011139
0.03801252897874334
-0.04446055152803592
-0.04043444275707086
0.018363015009365685
0.08366883230833477
0.0367634184700537
-0.036577587751363626
0.0062287545291132874
0.02743291694191706
0.07858823631088083
-0.033382525570156904
-0.022537093614712927
0.038402649965740394
-0.026427521056705483
0.04245525988896315
0.07702021282910683
0.0018273696810563835
0.018331062475566155
-0.028598193480845725
0.011061560880696184
0.006546647587311572
0.04540191356870334
0.03237531549209697
0.1545869954658509
0.01196177738373076
0.0028150684895139073
0.09477776142916788
0.03329091322446406
-0.034654954714525184
0.10946383147890458
-0.0267670086840715
0.00484488824657605
-0.0425259778210918
0.06485140811998975
0.028487586217280522
-0.10979364087515649
0.0315650254187387
0.045420761060464575
-0.05505911492005866
-0.047509908804867856
0.0038103353152398652
-0.013108039263396943
0.009145741605519847
0.0011931245681805938
0.01575690525641091
0.11771075701425715
0.012868976041899072
-0.03279032495314749
0.031069108732778457
0.043940571227811503
0.018258675496192853
0.017384003690708402
-0.05826912131106757
-0.004364006644200168
-0.0332570068665077
-0.12942855059541747
-0.0004596194610941471
-0.02318611535117493
0.05238483149967724
-0.020975748803950436
0.004414820574961954
-0.025395510902013807
-0.017947128593742024
0.014887299075644164
0.030162700057589233
-0.0015448070232177771
0.008426991072487105
-0.004518332981901307
0.029576782398918585
0.013927871767020806
0.02948774510902043
0.013966978903893474
-0.04232849875315366
0.03655643395223704
0.010661311571953805
-0.04128103215585213
-0.02651136125843595
0.013511113785099546
-0.07023146708200088
-0.0517951724555105
-0.06150518111473668
-0.013491208166224154
-0.07449428238208869
-0.0702321556997488
-0.06862719760542259
-0.025709448653285623
-0.020693062402307283
-0.02693179331622172
-0.059027409302682535
0.025894398725970172
0.006758964972731574
0.012655116859700942
0.08991983166492085
0.015968277845629954
0.0639516529047983
0.06053033386013215
-0.049007675849775584
-0.0005680790317045748
8.230637015016851e-05
0.001118750878244429
0.020098836719213954
-0.01569097155770136
0.08339387801642796
-0.02068592281951173
0.027346179311209806
0.013151773832287748
0.06345251541748752
-0.042446415378739055
-0.011943350361508828
0.008722478128795681
0.02436142740795997
0.040803385967070234
-0.04998495286019475
0.05190182340511399
0.5626864451069333
0.9832875461241825
0.5348222623547222
0.10074716993288264
-0.03606206381330597
0.048502758537587815
0.008605423733883738
-0.050615493779035396
-0.046790957294597715
-0.05573839753926815
0.08299526926384665
0.0034209697107374115
-0.037895207538053824
-0.004611164909811009
0.009735553929695273
-0.005370256735466969
0.04311986328100859
0.007960985724140172
0.029049146846983384
0.076635725522703
-0.04798611253926613
0.007272942760987057
-0.1399938582152648
0.017371423209072517
-0.013552771424745608
0.0009641192401435895
0.04023560230375236
0.016547657186187153
-0.03721443828303127
-0.049735345470742494
-0.06195961013348703
0.018293719952422877
-0.08508496885264011
0.009533524209018483
0.0375890352783251
-0.044024710080317254
-0.03316101303335325
-0.05904815186132833
0.0481664550686099
0.007717200988778497
-0.08741005103906639
-0.023172362031012635
0.058727241500428774
-0.05517411106285516
0.03240147289974127
-0.039575117819827615
-0.03789857352847393
-0.01964543039746426
-0.09923187961736789
-0.05178263352552967
0.049854225304277515
-0.005931101084256298
0.002703441570875081
0.03240665495902933
0.02171788297732177
0.022729092965296873
0.09079900285639242
0.027817504331698613
-0.04640144672801272
-0.015940309548597112
-0.07226975213680328
0.02012129011620433
-0.03306056675375082
0.01518514321908792
0.028517258319628303
0.06797523308806375
-0.036034038701733
-0.000434592486991033
0.021521687394554706
0.04769539144915333
0.09285990461775212
0.03003321981576326
-0.028761826386485514
-0.036187123535660115
-0.11150393812124625
0.028327954782704435
0.011449998759837961
-0.021294418442783118
0.020655106622019942
0.14600422736428142
0.006368821199774658
-0.006023703433861306
-0.048178800102273295
0.04936256045486871
-0.007208685571620055
-0.029655943921963704
0.04913045959115948
-0.034140519782405336
-0.08583803139455787
0.07690937281561414
-0.005919967158558137
-0.08642695680142654
0.0128998965138983
-0.014079002270429934
0.020251418086164836
0.02953549155380321
0.008048444893852084
-0.03047542418275579
0.0015346116443144865
0.012150376191951164
-0.048212052076777194
0.03933923292504652
-0.003955461096220429
0.0396310585974249
-0.06157793948414181
-0.039201567473833174
0.03759938098021198
-0.040559102949794035
0.04958728514692318
-0.04534908147702651
-0.07448906293672024
0.01975768457732761
0.17386713399748457
0.07960883721579758
-0.04302858321448275
0.10118200503833348
0.04683399184400112
0.04348521614365921
0.052207193291431454
0.035121150577578496
-0.07149041564977414
0.019069727314785116
0.009660781100724544
-0.061246426709645134
-0.07983937773055166
0.027142305011839337
0.010384895200110048
0.012005560898998928
-0.04861162559943534
0.043437776211149776
0.026021066473181753
-0.013725827617244625
0.0013137393019508402
-0.01934763232725284
0.05682420734016587
0.01968089954980276
0.01811509897934944
0.028691417334687903
0.012482846754605776
0.006236965429407062
0.051922015210404175
-0.1171102775516802
0.001185075438395477
0.019601642854796725
0.026763899975004647
0.07008477243919346
0.035319710472988715
-0.03766223872401977
0.06533094571497375
-0.034803018362374274
0.033491847338787926
0.043824744089372064
-0.013315097178862804
0.02951989454892258
0.4873337066567495
0.9764608151466956
0.4285813274027893
0.09831932255207437
0.012873853217339313
-0.051533929386101796
-0.0409149029672208
0.01814477331510745
-0.019047316025515456
0.015944774116528195
0.05474834855021733
0.043246425872213085
0.02708655854570713
-0.00625209728462836
-0.06144324538323353
-0.08091902800375833
0.08343229959949332
-0.006424115125771618
0.0025046289624554726
0.00838663348253549
0.02646689679818808
-0.08296945107137765
-0.04093458313078998
-0.03388135447348734
-0.02606581040965757
-0.017835447146788388
-0.028084434294771213
-0.02809426842690367
0.06678898308544172
0.037978759955750035
0.03504800981894142
-0.019906790503239305
0.01563731812924427
-0.01726273712077889
-0.07307215876941069
-0.09729748208864852
0.06521384879450907
-0.01149473554660344
-0.030362102151097577
0.0013347845090103962
-0.018512565977155046
-0.0065668599929006
-0.05753205525898687
-0.10368012944275723
0.06794640653019789
-0.002737734989559557
-0.016070586970980294
0.08365528824619073
-0.08994175350740796
0.06796266220359588
0.0057437039786634
0.04175990312350252
-0.08934971184293607
-0.026280841476410112
-0.0033032339046081306
0.0169720536338565
-0.06622168180807718
-0.14022865538765364
0.05288461861805315
-0.07480212683040328
-0.045625664897099294
0.024477487096070623
0.06539487739632886
0.08066045737196971
-0.015913317404845383
-0.06822428581938432
0.015048863383517314
0.009152788274275438
0.010743193079410083
-0.04351990343389944
0.023345260368199776
0.037362569441627615
-0.03486841135996151
-0.05594606339033897
0.056186915456026214
-0.007772777383186925
-0.07341751620553852
0.056779411233026225
0.026583993837614606
0.014822552965256015
-0.06783341471687172
-0.044005385643658586
0.024659042846454468
0.014207960860109206
-0.0014027662135522325
0.029684110585402025
-0.04297801157033499
-0.06256979941802385
-0.06702695815989622
-0.03611062854651384
0.04621921590729925
-0.019357861355197
-0.049880449513254654
-0.10652041739006837
-0.00699403069246142
-0.07726386260015775
-0.0428512105440641
-0.03150044306825041
-0.054308925615307584
-0.024850494560586068
0.003056497934320161
-0.006349812622972385
0.05492523685958977
-0.07408443211029657
-0.10044776487809344
-0.07164565365851734
-0.000990582802845553
-0.02925023549707638
-0.00932719005875464
-0.022496944328273295
0.014440131995078348
-0.08845319830769238
-0.051032329007349456
-0.09298302595493764
0.010331323541125148
-0.030231087723349426
0.014976348938845696
-0.08594470697088843
0.07889137551254298
0.007634924736032412
0.022278418195329316
-0.03572748973443916
0.01990255638512585
-0.01111942854645463
-0.012962414995640104
-0.08795276623097291
-0.05430342086022069
-0.03278291827277286
0.038935737149509146
0.0759132359387949
0.06023432419758366
0.06272884527590902
0.001797168448939486
0.0023376375077381606
0.09855710254448113
0.0006714508622135449
-0.007919769157813665
-0.11207140973380339
0.025775159368267516
-0.014221638909026718
0.06502334005341485
0.029106218128995817
0.004582590782572684
-0.021735299870394794
0.0499449250840743
0.010517552585717292
0.008755345260129893
-0.015247939775179421
-0.04966106855842174
0.062094152009011784
0.010215482258533422
-0.03670386503919024
0.05698752814035594
-0.030451345409642346
0.01227517642224156
-0.026313333886323648
0.07465064945612393
0.49770327299914147
0.9807385576993979
0.4832315977826595
0.07641754004413387
-0.06639943537814179
0.017154555344591062
0.053966300868618644
0.0009091359192892729
0.008571017214503913
-0.009705816803488863
-0.03262606754946089
0.06107384003968163
-0.014365169044714604
0.036402895247177124
-0.006844857888870806
-0.01242891432886094
0.0836300175800757
-0.07464916842568263
-0.00950896858635367
-0.026565506816901105
-6.485797075254347e-05
-0.013564702431130754
0.061331514948765924
0.038971828133982984
0.08509347895586532
0.03959866887244631
0.03405816600156808
0.12722478322638517
0.019597455918411385
-0.04926582669294109
-0.05737018051044751
-0.024639504549433408
0.02894005049502818
0.005994929662982999
-0.014249632410585748
-0.03839011472657049
0.062277299798478715
-0.011665872917649617
-0.015431095066164503
-0.023177983043101383
0.12973919060371336
-0.022537428603955138
-0.05151016035807977
-0.021968297943242832
0.03524572263357822
0.023461664883369177
0.016676876789028655
-0.025100437620567247
0.04472982033302491
0.015293366299976489
-0.011568658105718353
-0.028588771264636423
-0.09389475501289447
0.07652539497531535
0.0020505978115692674
0.04099417630838101
0.011607210623403752
0.013330583226003495
0.07271318092849985
0.021954904464194073
-0.01791738566624627
-0.032295434951008256
0.06247474009125904
-0.021209583673974002
0.00915325361059334
-0.024838414043145036
-0.01165563612075579
0.01367291703686379
-0.04790071682276534
0.02391416390641292
0.09645820033843816
-0.07891835331478136
-0.04706931101713203
0.02454459566158712
-0.04268518978764241
-0.000863510788785925
-0.02325321083457103
-0.02112766662072395
-0.03431048475695801
0.06861422870928983
0.017973817849234592
-0.029570815834408532
-0.023811988517718277
0.056826906468417364
0.028177752053732765
-0.014799716260040353
0.04436379209786735
-0.12908297252394227
0.10986564361724782
-0.05089057267800984
-0.06875316556795205
-0.030317143845143415
0.0605137834568337
0.039842167707131934
-0.10812178618253394
-0.02813050473504632
0.038961111327452794
0.013487462819610718
0.023268627689197505
-0.050280751729213695
-0.08288743549081243
-0.020519023337745218
-0.021177644904471413
-0.05381595384586029
-0.003966070368395038
0.06949152925334319
-0.0603594604066505
-0.026820805786598914
-0.004704687860830379
0.043966002714613414
0.038424197454187924
0.06527631328695924
-0.014808376264004037
0.05469305085187988
-0.01539881190464634
0.06625088582351278
0.021212461786533007
0.03901904389579772
-0.008215485985696266
0.03036487498031075
-0.04269687614727978
-0.1129370967527793
0.02185360770093969
0.02271198363475399
-0.005607878086925838
-0.01994206656520213
0.0415399260794235
0.10339781780735674
-0.023725441848025067
0.1393407723132931
0.02144576259089087
-0.01838448732697513
0.0025656377493343905
0.04913000314601029
-0.039635108022883114
-0.029947909348102444
0.004378958798784724
0.0691641019370837
0.03186382546650367
-0.021371177016673782
0.041329038565117604
-0.003264578258903434
-0.0061458069394589475
0.01597032482172353
0.0748486029169688
-0.009249195833458521
0.041462482823387097
0.016566676484728506
-0.03765335586126292
0.024623804524295037
-0.05275882608411251
0.01572958853411776
0.02479985159643096
-0.03515652908078494
0.031535292347799705
0.02419046339024478
-0.0008962163251298207
0.03170632266367824
0.014217509869389109
-0.09515437075479824
0.05736786266016105
0.4939811774498936
1.0206869704464594
0.5232719592158842
0.15440446767246266
0.03773721602597095
0.05262442834667646
-0.020682618652713376
0.008424469111028102
-0.07157381654793972
0.049375131527281735
-0.025788630739789594
0.008893356435075729
-0.04736037602928198
-0.06023359078414339
-0.032252080888938994
-0.025363063006313885
0.03400452174961658
0.016833265863274913
-0.016343614847541415
-0.10883343995607371
0.023644385424345927
0.037270596013975095
-0.004229113646932489
-0.028448617718168423
0.07918389535371012
-0.008489679822872746
-0.030260583158937638
0.040821111601611004
0.03327948684525615
-0.07405571984849312
-0.02659737569590633
-0.032353384889710686
0.06344530450482641
0.03836263099302377
-0.07213546008966046
-0.0578715715792458
-0.0066187272950272704
-0.07822766367215178
-0.024716377074489194
-0.0753925783750067
-0.00018208761354427929
0.04926993933439654
0.029202315181933204
0.017171253733977744
0.042383588533072725
-0.009424159639125627
-0.017034625482820278
-0.013564989344719709
0.022981225815399867
0.0291501737057738
0.02916323715952744
0.09278193532045459
-0.02716543555625143
-0.07720014211216508
0.035841210080288226
-0.08765013765903551
0.03990182094147865
0.06886184618849676
0.04552734042151239
-0.007281403413727381
0.06685364173463167
0.030038924918930173
0.10452275605670552
-0.024398334939009822
0.09379455798457653
0.006497587761918922
0.05300269685122677
-0.05876063572290176
-0.10277108700284064
-0.05975632296032201
0.05470316988563539
-0.021193685256070675
0.019545797308264185
-0.0791710110371257
0.007635598280551482
-0.05510610559448076
0.034571019467848095
0.036002031271709256
0.003590080516459685
-0.14018755028864463
-0.003455324245666287
-0.12850847474031432
-0.02805808632249554
0.0444898260326
0.06631067664205938
0.06208162593599507
0.0266717543385412
-0.028126613931234473
-0.030545963148190844
-0.0001128499750793589
0.0016039449575856474
-0.002707448731174247
-0.05000422689084005
-0.057557922116563555
0.029376685190376513
-0.04922615303567831
0.06700743882318154
0.0032947221023519563
0.019336199609284184
0.09882090724794255
-0.023017712204708034
-0.016361837805717094
0.017449828872668886
0.023518111368105384
-0.01427619337592842
-0.02770503493531633
-0.022146176213272355
-0.00585255037627816
-0.00203711405650766
-0.025452192206280668
-0.0050989522593283074
-0.008604426597804775
0.07299847420206904
-0.026231619044004395
0.003835595072461314
-0.05247811152787854
-0.019810213788039547
0.015620657574892258
0.014995717309813309
-0.10462974657046714
0.03065234136627772
0.046982206785299324
0.005324585224777061
0.073317517123929
-0.040360501877633355
-0.01198975337342075
0.021121233952420767
0.03944184428693357
0.04715664434145729
0.08616568064999375
-0.06436835962998466
0.0028686301403241894
0.04481308938396986
-0.0940242502639339
-0.016622511769934022
0.04460342269203485
0.012801289207849035
-0.011465438020070004
-0.03907642721662688
0.034770907473894205
0.0716925883332924
-0.003908033050929404
-0.03638383960796259
-0.07174962599962538
-0.10413597767697523
0.024578777126404616
-0.008580003596995739
0.016310112282953388
0.013400349761291733
0.04571929679720793
0.012669140621571026
0.06109134482077704
-0.029376364769685526
0.0403853275706315
0.030078468302163874
0.09008826590351685
0.07965078794035656
0.5448194398337183
0.9611566750723992
0.5097136678978847
0.10717862679756764
-0.06931024477520317
0.005035810829220902
-0.08554809340808445
0.030289552055831184
0.13047939131354433
-0.003917339837068637
0.1525703872688322
-0.02610819919956491
0.08849302812190735
0.05077979600861086
-0.0046413122375839186
-0.02620393000868945
-0.0576480594635144
-0.0627133454969148
0.02924109968573074
0.046648592324318686
0.08917956603834132
-0.06132932564642882
0.044163056718162404
0.07198637263535836
0.007322953301321645
0.017330107999361244
0.011895876348060313
0.023073556023944248
-0.05440748618471173
0.08843718995432927
0.08543114250645421
0.028802101623327775
0.007629313181504026
-0.02339908951003254
0.05031081172281752
-0.007855516234957376
-0.03363705373265182
0.07379613290991567
0.031558009280540415
-0.1433843129470034
-0.0063407061578993245
0.06752886984702698
-0.020440624198042927
-0.024340266886643522
0.04642374263489096
0.02809686266765048
0.07607356882461569
0.05249003780646311
-0.00603509455645171
-0.0012555980761747181
-0.013096583711055994
-0.06277451667985405
0.027819865878007277
-0.04764743933824708
-0.05411989427640254
0.0053808859699479945
0.022837315211840258
0.01457427267277581
0.012615608083699048
-0.051226671110915126
-0.006422277475851593
0.07570882903822064
0.01602013600738095
0.04582119824789864
-0.017664320862552232
0.01803678880180055
-0.0034932452545659376
0.0005969792986125468
-0.0477922277664213
0.07994919766980471
-0.05421381837385282
-0.01437801057554122
-0.05120907004115101
0.030061259783464984
-0.031114850639255245
0.020974437232496645
-0.023767654868366846
-0.02516075542246911
-0.010155501076889908
0.00899115368649182
-0.07898784442141596
-0.010661505305560178
0.06529861752209241
-0.025946332977373667
-0.042596113026638655
0.02049876194241303
0.03592421551170304
0.04204203291527511
-0.03161428177624621
-0.06295842315862692
-0.004448560859359848
-0.03822035271287222
-0.0300393006816076
0.037451100309038206
-0.06999607247671925
0.014485510198336528
-0.06913429782712346
-0.02394367175343664
0.06703632518568137
-0.07900246806928533
0.03877942716477799
0.07587298916935795
0.008639574458552157
0.12653601963276273
0.07649630924807603
-0.12153221869831668
0.0674664137192089
-0.01311656627268568
0.001477456806144265
0.0109085782601395
-0.11146420678476228
-0.04075761191195405
-0.07058022635723978
-0.02015415024400685
-0.06281735061791975
0.08339497262666273
0.08378051013860566
0.048648526531086686
-0.015260714707253873
0.031550190021676215
-0.03458288364333969
0.05949357183684473
-0.006349329588343164
-0.03569024455718132
-0.06233302648592285
-0.09714776352462126
0.0654083817643246
-0.04043033582669861
0.03882868171154741
-0.04044835630379722
-0.04831883279510685
0.10822242764231947
-0.04239837720526789
-0.0731546739253086
0.0160049962995955
-0.09184444440937929
-0.055713303620187615
-0.03816521849129088
-0.049362472652297804
-0.005640300392487513
0.009254510682976582
-0.03297160509477158
-0.006199702756549885
0.035024313396841436
-0.09874446945770787
-0.026711259141115343
-0.01490900615124681
-0.007904069778986377
-0.0367750562802103
0.02643755558782933
0.044990927322720156
0.025447411450955023
0.012517023319485787
0.10275818883097798
0.05463262217188852
0.479994940227687
1.0453713010205141
0.5142873662549191
0.014571800798333062
0.09683990197398656
0.08013140601956392
-0.037547071453885854
-0.03587125071510476
-0.026262692048417982
-0.020166014716543498
-0.05019583309332697
-0.061793502199379825
-0.018315574366235467
-0.04813060183015824
-0.0052373390821636445
0.09169978895454411
-0.02762761046447372
-0.027140303688735018
-0.017848729421940164
0.054063453187849976
-0.04327112744143935
0.06514387371214268
0.052941552116753526
0.014609327633409101
0.005534601987026551
-0.008876623102988949
0.06328631297478846
-0.012460103401378424
-0.05798228360035397
-0.09303011656867105
0.0043851116072484665
-0.010460425492873819
-0.08853581257011722
0.02108710024354625
-0.005648986298533145
-0.021183812170741795
0.03824349867037282
0.01241474507571705
0.029797864086686183
0.029268828274903454
-0.013082625100268886
-0.04764889262368405
-0.05379614363167007
-0.028857971177790938
0.1248882350688539
0.054132668956385604
0.026584207991533354
-0.03802712993610772
-0.013911604916225074
-0.029942432058255444
0.06993625787204297
-0.04684273821834572
0.04051873989716198
-0.0502530391010027
-0.07016854117344899
0.0006492992124669259
0.0013523770070831345
-0.05039694392921606
0.024419371267760424
-0.034239392217394395
-0.056098253269123245
-0.03766956179352384
-0.06098573118902343
-0.0005457735421842881
0.023533992369593297
-0.0016536510034064545
0.08629452767806374
0.005857446290084109
0.01962244576952948
0.02549590252276033
-0.006197398920261177
0.0778522125467599
-0.0261356238415405
-0.05130141479747768
0.011934510354391997
0.010388442845960855
0.0062879845062109255
0.056804904891205925
0.02757401304866305
0.018872397431270695
-0.0449686296124108
0.0019206111922079477
0.05737270362769804
0.000661348853918233
0.03737415096254716
0.026711169475931513
-0.027744574975714743
-0.06402081606360155
-0.004491838667342185
0.006937580027509359
0.01315214403034163
-0.1136635892579466
0.04091273171366458
-0.008770279690787633
0.04280011367994005
-0.10737482552348324
0.008111141635384515
-0.014528548759016716
-0.073225322039552
0.05209913341787176
0.004481092997900454
-0.015534372084973151
-0.032324772269778916
-0.022573847575928722
0.041457038999849975
-0.036170493379119414
-0.020035056302033064
-0.08023954791715145
-0.09986300931692807
-0.07621025119186826
-0.014065555868645782
0.008516585251350838
-0.05948777914522288
0.04940564542150664
-0.07394409551347038
0.030752120699555102
-0.006128236065142245
-0.023871853862462725
-0.013526943286418028
0.03058340029463783
0.06559667217351221
-0.012560392090360995
-0.1064777887509491
-0.014870358909248963
0.018022283227149754
-0.022374804657242477
-0.035284701313952734
-0.08891102423637531
-0.02820161622966305
0.04605227516946285
-0.048404663204233506
0.00539004415529977
0.04431268778410266
0.04020587517193855
0.004032956609905369
0.06564902595375098
-0.02945665730076616
0.01178418116726463
0.03472598645624985
-0.053765525181222774
-0.009335231408200256
-0.033199154937828705
-0.08083602060071908
0.044081666922228084
-0.038630456187230267
-0.018530984736307703
-0.05411978599776557
0.011531502358488188
-0.03325900792348908
-0.017372215687927527
-0.00465477049897626
-0.022625534315132423
0.04534799549892283
0.01629449142581898
0.007831656012923752
0.5139989287678494
1.0326961664369316
0.5052934477570794
0.0994143061625995
0.013743089880221477
0.026488496350142856
0.05572438943262268
-0.0625330405971189
-0.04079625074251654
0.018426386475395736
-0.0314152077366612
-0.007396320528699915
-0.018434891964573995
0.0441877261260056
-0.030152667601884106
-0.12346394243534108
-0.024886909777118823
0.013935584135360772
0.026953201855058503
-0.05766216908302932
0.06096070831128969
-0.04786183081111989
-0.11727742304141986
-0.01879394745270832
0.0392011010660251
-0.043917502765884714
-0.028060347007122517
-0.05672666789833947
0.07308512214426262
0.05849686255170521
0.03194271290252595
-0.015644970167387893
0.04426141505931034
-0.0043339580037521286
-0.01907291596829242
-0.06399735340195838
-0.028385203222019064
-0.007395974505392289
0.015537686792144107
-0.008273307758792736
0.07698345180567698
-0.0230722886302668
0.08573286720335255
-0.024986502848737966
-0.019108076375460286
0.0610169766747304
0.007752695029253496
-0.045907124507695546
-0.02450145242094869
0.08204285416582299
-0.06288039586970826
0.02310278084522073
0.02988509306509153
0.13338459533130967
-0.0816533665988429
0.0155282013124306
0.017664630647668385
-0.015587773553687932
0.046386968707366256
0.00338000456795426
0.11854966992299475
0.10659454990735595
-0.08637240466712587
-0.08382272186829987
0.008578926619369103
-0.03882855697560804
0.07133357064572485
0.07812280969697438
-0.031063063691935178
-0.016786309023058728
0.00035139268854367706
-0.01412546194248318
0.003270152403345203
0.12038288312838988
0.02707376842126835
0.06765642278248024
0.05392581526980479
0.07791276352891491
0.060595165258594375
0.0652967222131293
-0.057955730115546424
-0.034939201789935585
-0.03720463160088632
-0.038214570188999736
-0.05621456961352289
0.053750115851452555
-0.015294616670128056
0.0413163253273603
-0.030110313358779672
0.010088716402526059
0.029039979652688626
-0.013240470026652185
-0.0380489202670425
0.07521422300235248
-0.06376777409545833
-0.02528718287924215
-0.017445411424086205
-0.004114920517494471
7.109416432706904e-05
0.021386770985723877
-0.05827674972102014
-0.07101652412107072
0.012567170154302938
0.07260797814657015
-0.07372581653770917
0.05863648088834118
0.059518567288591596
-0.013100482579337179
-0.015932008199793457
-0.054503496796819734
0.022394562255329417
-0.0922316644776332
0.08227423662934491
-0.04008424086874952
-0.06988610334102657
-0.04846896299479114
-0.05422961269840285
0.05502395248324563
-0.0033366479417206666
0.03805479521364632
-0.04965957982425587
-0.004069461383053211
-0.005371273065551328
-0.002651139028624791
-0.008048590396655902
0.02587736786563784
-0.06677200942726286
0.010012717240039251
-0.0076776352745718205
-0.018747185843295395
-0.026561826963218245
0.029522697686728012
0.00601342008390902
0.00248046735621622
0.01739004194840839
0.05026466447271552
-0.053487013293511645
0.06020603952155878
-0.016737944636979227
-0.03613462381354526
0.014136633600728702
0.07560802889588454
-0.0027054223223079723
-0.07530473826267661
0.051354672318805195
-0.017806108539766576
0.050157396484620066
0.06790607777019367
0.028755070205545488
-0.015268841895665429
0.04875859635095298
0.008480876924490082
0.02331379437176215
-0.05908165221482621
0.04579989140499111
0.15592057955477992
0.45650327515894873
1.0272204838473158
0.4370769613820982
0.02979758434077441
-0.06111547446935178
-0.014962977928720603
0.0011493322041938182
0.006311376551349938
0.0406231887129305
0.03555107781205197
-0.013156465531122956
0.04862510789286856
-0.02746552010122257
0.022847594349261577
0.14205064822536126
0.04498866371195716
-0.07762388901572703
-0.02310724634492956
0.004326430099118569
0.0461566444119214
-0.009160729352172586
0.11156693714340449
0.06192508252948338
0.04715408864529688
-0.022545982914508586
0.03065664797689261
-0.014617294239527871
-0.05650035488762156
0.026549247033453596
-0.05108990629508077
0.02164349213890287
0.05093601246765081
-0.020904026351179446
0.09417116631618634
0.047784563958630955
0.0580106442392943
-0.03512946456048441
0.07947361968116014
0.020620286951541392
-0.11187390577302612
-0.034133549221194645
0.07125933903345076
-0.03178220387522877
0.03225852545256865
0.09162324470930319
-0.018635293897929863
0.02830134025614624
-0.035467949518341264
0.023004232720814765
-0.03124439345760654
0.07870361668573236
-0.15704362226609864
-0.05133770673653923
-0.0639144431170714
-0.06097457359031443
-0.017719237912769355
-0.05942943446807369
-0.001531959544319591
-0.041886237137592944
-0.05826195911742993
0.02033424052761526
0.08918153449124913
0.07675926222601497
-0.028607534648712477
0.004627650649191114
-0.06708250632679384
-0.01325523339602752
-0.05078907063277756
-0.014134369674195225
-0.016272955318726735
-0.03426247218845212
-0.013408550491738398
0.054435760378779265
0.05106763418709845
-0.10503074923820017
-0.0631435249784896
-0.049716604415438646
-0.07499907537138589
0.02580065528020542
0.030341662808084396
-0.023194333411860044
0.04340846353291463
0.017235140650012273
-0.026391681565720054
-0.06859341512830022
-0.04767511531872805
0.007753293410833785
-0.09428550281863002
0.007774234437837241
0.04292074349920995
-0.03566607213979125
0.00919672162079543
0.05904206833873338
-0.029266112305334626
-0.023076036574044046
-0.04839354936993705
-0.004209031732756256
0.1010201560650466
-0.033886963190814516
-0.03340534869100832
0.014604523760283676
0.06592467226148345
-0.0262612355589115
0.003039496726921583
0.06600750410740146
-0.008180083309391115
0.021518489600450413
0.04359179155378561
0.0587066323734619
-0.03655307548977754
-0.08136511074247804
0.0628329830960265
-0.06723672358609088
0.019689776372780278
0.010191721055911316
0.004832375130535072
0.028394432620575945
-0.07365580009592156
0.025099639303674856
-0.04571528060609229
-0.018026927974874256
-0.0161964381082234
-0.023886318415686694
0.06875349507021204
0.006973855974464892
0.024764573164137715
0.08353748215258877
0.023651361777325557
0.03998619973000392
-0.10679324171626968
0.024333380890149123
0.01263588592072918
-0.10706286661566376
-0.037733802576697485
0.05116756978722469
0.021521079611060586
0.03356657694716603
-0.029064258454869804
-0.028954659544986557
-0.012883491812986753
-0.0720580138319482
0.021134274904752597
0.019402290774326987
-0.0028337773448315535
0.0007558817355453532
-0.04143347089821014
0.05179761357700966
0.03523379903457077
0.019246956947190922
0.009365693812771476
-0.10187895545909005
0.005065656341240021
-0.008912363392367251
0.016810253737751742
0.06456740780416691
-0.08056055988039382
0.006252690905966522
-0.010570924057854317
0.1283580139470676
0.5757366309722705
0.9950928957765638
0.48910866568871786
0.07657408853171387
0.0665878336181054
-0.02531401954601121
-0.12455652647346283
0.031639282399366774
0.02564803557269041
-0.040097376404173865
-0.03900999849792711
0.009718463115384211
0.031390804235883495
0.058743291598263504
0.0394104769936053
0.08020061139241576
0.08478771888081954
-0.0180577419176431
-0.017142515915002928
-0.002673525576788517
-0.14897702236942667
0.031094024615934225
0.0019352426061502955
-0.045259162327403686
-0.027824481808461733
0.005243522697258349
-0.04056408053066887
0.026563030324570372
0.03621580998189689
0.017691090741185925
-0.016412547376120582
0.00032360395395307116
0.010563570906920453
0.08675470539862026
-0.053755223377496976
-0.01315660981997098
0.0003299297329628759
0.019177992098558975
0.10154116577132527
-0.06399387677670149
0.01186882530542767
0.08164671413935831
0.07231006124498997
0.03548405281699076
0.027953917766171676
0.017597637235313043
0.009120894733247316
-0.01536900386768868
0.018041670074703604
0.08561992007351425
0.03888013943487889
-0.07725312412252248
0.06110775795027743
-0.0004382464485431493
-0.01028609172586316
-0.025757568177351933
-0.12968418981758273
-0.017826690521506736
-0.05881308852058174
0.09592773205983551
0.0012209482315033166
-0.0664809785221821
0.06897728434230142
0.11796745238444324
0.017926381554382927
0.042549381866751806
0.018399599121201888
-0.047698943773507585
0.03594102074060456
-0.0643941633144547
-0.0825122242936892
-0.09266081363704183
0.017030390114088453
0.057029812530454055
-0.009967277107994207
0.036830291835157396
0.049126234130143054
-0.08709614454936213
0.004900164106681646
-0.04959839650767278
0.023551023316505215
-0.0012417259262475795
0.026087891412577526
-0.03888397484881797
-0.032347420969035576
-0.03584661687058748
-0.0597765915036227
0.13255962764034054
0.007210505712097973
0.02933864466316102
0.042550110727453946
0.054251692927020284
-0.027918716633476018
-0.0407306840735137
-0.038689255568029574
0.030436371031184642
-0.03113571284051292
-0.04151822785555456
-0.06229136834264246
-0.0739038017454998
0.11800208426439007
-0.008657377348117909
0.06084136020691188
0.014044423530273726
-0.04227552624306979
-0.07200094912742076
-0.09830993561715005
0.001978372232215258
0.014833413800014626
-0.04194176219772497
0.10335507254689556
0.03238519086943001
0.01697390661421482
-0.018417894932682966
-0.08970795235405407
-0.08443106485688495
0.046343537875315075
0.05779030525268617
-0.02286461524507965
-0.0552009109629463
0.0065213813460014486
-0.01491389238168142
0.08590138949308967
-0.0070813733977873996
-0.045065835147439844
-0.04709942830026986
0.04258280517418454
0.021403903513644188
-0.007046583860429889
0.05002701278019344
0.08250135793705038
0.04977173774402447
0.020279246450132637
0.005242665758084623
0.07442036420483854
0.037539853897695916
0.06320944525579138
0.0019349767239233127
-0.018185182126875348
-0.002078272949467732
0.019264241915036322
-0.023269063468470044
-0.042058846533874976
0.03952158644101954
-0.08641055695962514
0.02337171300534583
0.04424261162469066
0.031275130615267065
-9.455407898945636e-05
-0.09995941895338654
0.03244910352067619
0.047890422186871145
-0.02842132257599902
0.047445448850214844
0.02660444091238113
0.030988022947471768
0.1695609583789004
0.4646861019915312
1.035223983471324
0.47847795736629767
0.12428279695977462
0.035025271271835606
-0.01229295943686395
-0.06375471033599799
-0.08590389802215029
0.02707207811213362
-0.03781982476798703
0.08953666378846464
-0.023632045966050008
-0.016207591653652067
0.14495004819865936
-0.00568234551240955
0.024359272312774655
-0.040926373720705865
0.02325224452605867
-0.009559608269544944
0.05005094470926002
0.013230395154707404
0.0052236660369786025
-0.03452487295551403
0.014191287433445188
0.007190150849383407
-0.06592425414842333
0.02723010363435075
-0.04081184395551283
-0.07069527739071949
0.011278278078925313
0.016776693911094796
-0.00801762490586026
0.09187871733911245
-0.035757778700465315
-0.013011584291724158
-0.04939136315749376
0.05041359883245
-0.004600929886484989
0.01144313729424152
0.02755789825712623
-0.01642185609676641
0.03785135604010254
0.03556859085151755
0.018006632016289784
0.09549574036772032
-0.09750164015403237
-0.027098973160069206
-0.01512630622133856
0.0310805487369049
-0.07467308886588113
-0.050530890593940184
0.04116573547407966
0.06474603240102171
0.005277036820194158
-0.015747457295735123
0.06393213089422324
0.01942001697560984
-0.07943371801255444
-0.08010741572072827
0.03589971450003189
0.012884437666677788
-0.028323017659687602
0.03447402249561122
0.011376530945333288
0.035000081580469106
0.06379988091977302
-0.030042294680644066
-0.026247694547237094
0.028144289844375354
-0.03415392490938252
-0.02421150210873421
-0.024938782598918005
-0.0037712199168531595
-0.00870294081251569
-0.09387714746083253
0.04079421680717663
-0.042700817815218256
-0.03062603000899386
0.0016298381576898809
0.016224831805311486
0.005150889354393684
0.0029856349988234008
-0.1370340948590181
0.018178014952541382
0.09329877336044712
0.003551107473717171
0.008009757947057897
-0.024545379140531034
0.0635893771660718
0.015594250175991035
-0.08937069121704769
0.029427905348358346
0.0936352939996871
0.004902292292297996
0.07723355360287781
0.021813266263492153
-0.015525243031286407
-0.010711479138395395
0.021913361036088957
-0.023126697809346723
0.011750786643491391
0.027026708215143448
0.006384069272396805
0.035757875913459566
-0.012418974734943942
-0.06997258672555484
0.023076746432110405
0.07405897550237715
-0.008016782268342943
0.05779046061950497
-0.049611588137726315
0.0618083438412275
0.014100479619643695
0.01930327998514071
0.1039959996229034
-0.06594020420881366
0.005489267179872779
0.009814502239599218
0.035300206412697925
0.05687692497723418
-0.04306180910602127
-0.001577781904684656
-0.0003214467560500006
0.05962792651229747
0.09219106158638528
-0.027447037858896087
-0.05158260605574499
0.04756391099661772
-0.0080778172563579
0.005464253926975569
0.057680557934083034
0.025891717907033557
-0.10234135604145922
-0.0663780749977502
0.021091625805863004
-0.030758864924303
0.024217188496285506
-0.012465732648191504
0.07748759839947693
-0.014670571976302263
0.0009953448209471263
0.01452028944839633
0.004865465698057159
0.03456530915486649
0.037598512705337844
0.030320225749901425
0.02504455376419088
0.00513069080288781
0.018132303726363295
0.03580824921365077
0.050386351446485955
0.0310761370119951
0.0030530664807720143
0.009952939737395985
-0.044748413212228264
-0.028025208198814135
0.0735809207059796
0.49262619778803546
1.0279630487964497
0.5019907254906678
0.1284498134607261
-0.01525058129393653
-0.010752342262412966
0.010053388026466867
0.07730166219222966
0.017351250338252966
0.012592475530614959
0.03355032202798489
0.007480277456736176
-0.019969932300899027
0.023197537845930084
0.034301802190516276
-0.009969570408177955
-0.0017559404270573256
-0.025143185773317363
-0.015018467761100444
0.02999233113185414
0.03879579990708838
-0.014263903051785855
-0.1021919990479894
0.012113689079356208
-0.05165789500829925
-0.07368126399649935
-0.029163700206008267
0.005502528992658913
0.03895311790860843
0.03566148432615785
-0.021471777892476077
0.010521052289535782
-0.014066641074546594
0.0026767114407056846
0.02619777757917457
-0.07371720092227965
0.022050634318325674
-0.047033033055370085
-0.1144507317163251
-0.006354560096097689
0.0018266685537793816
0.013688680300976456
0.025884128844709677
-0.02318332628229622
-0.0814338771980827
-0.035430298097720046
0.0009281114995408053
-0.03825073238324302
0.008061135326755457
0.016407820158103464
0.04958284799806427
-0.08412261365388646
-0.007757123461439861
-0.07745087754543521
-0.009181439426601297
-0.04587501024953884
-0.01260002965755539
-0.024108165386956915
-0.022283439362539872
0.046205680045529614
-0.11610680809280316
-0.0017934465955087584
-0.05158744229329441
0.04025040443520633
0.01927117759705668
-0.01131077073845258
0.00034520941006095174
0.024556168314881985
0.05919664842905109
0.046655396465274696
-0.012269750316796453
0.08851161372879078
0.05003785679043802
-0.020788267456833005
0.075389498798236
0.054777792938403305
0.11629578288726912
-0.019474346107886627
0.07115026537843953
0.09386102697315479
-0.01708472465435929
0.0009282476851851237
0.02411267819505503
0.006367998274892102
0.07408667406605524
-0.030908343400624427
0.02616744674235266
0.0667786046654759
-0.053346887009988346
-0.07213427764832629
0.01065385417697414
-0.024539027579467326
0.0797729616381699
0.004915274051138578
-0.012054100707769648
-0.026544824405202085
0.06277000270956655
0.0017217549684160846
0.011489095732693487
-0.09466063894695102
0.010597269580040982
0.031153712593959285
0.09830753507658263
0.038623020521471506
0.014858317772500433
0.009407889620011187
0.0014931890005106764
0.08638005814910518
0.04671732230202445
-0.02036163678901384
0.014233754570053861
-0.015190881923354882
0.0031101000194647247
0.02771599027002852
-0.023075235730400916
-0.035508446643696866
0.009035734228211384
0.01173164319749418
-0.020536190015023086
-0.003317721272871562
0.08064804923773253
0.03954896762747734
-0.042761356189875595
-0.008761722290269105
-0.04292191930343997
0.03406026353863252
-0.0008086012996513103
-0.011932324000290788
0.1162307839304208
-0.04756947061329097
0.07832184054441291
-0.0098199966167299
-0.06674032689850933
0.05947317983553923
0.004277962295847693
0.037201542615517204
0.11157169044700276
0.0018165434688258465
-0.17828500774214234
-0.06909208692989631
0.07451124053072859
0.01843881376562764
0.0005317996192084835
0.0009656204912262172
0.011391713207489289
0.033618438252642754
0.03540994589378784
0.03133346853004182
0.01600695120099539
-0.0530484441431833
0.0896875214341086
-0.08847266648385765
-0.010682991094707113
0.07797813926011732
-0.06587535603320306
-0.047632623416245884
0.02267663163328413
0.03161989277765361
0.00529675253651857
0.07912965815740056
0.48008787966845495
0.9568027945300916
0.5557968805911019
0.045162997394149564
0.08060986681923452
-0.004646732492352412
-0.0141208769890488
-0.11361671013838207
-0.0843478354460186
-0.02352384460852226
-0.026728476139968378
-0.0019910163577589314
-0.09937510738583244
-0.011515541842883448
-0.09224036571449615
0.10497955584782735
0.022977239378379966
-0.024639545179604545
0.0003920588720113985
-0.10695989939585762
0.04076752445770962
-0.10997145603598198
-0.0230407322514298
0.002113568366704642
-0.07023665800231835
-0.05691759380420093
0.0010767320989854149
-0.037311842536826914
0.039965345965266866
0.05096598201172803
0.01969203364097094
0.07415221445537278
-0.06358681570235324
0.00024292384689228778
-0.09109541497815794
0.012917826070572387
-0.05115541069202143
-0.07825421378114328
0.028232220249949036
0.012992057861537995
-0.0804184723454317
0.1522796381482937
-0.055461404369074256
0.011532018814720636
-0.021971809046199078
0.09091301394220698
-0.041251117999054544
-0.0287838255634503
0.06503971420211739
0.04628587131188547
0.05180492768136055
0.021406313714837713
0.12968598699449124
-0.056568806539843086
0.08547963101885593
0.049378375238268345
-0.02205748333294915
-0.02464298288221631
0.06517027757192419
0.025453358111208215
-0.03830190511029698
0.05018672632659345
0.014636655983070719
-0.1044275296346626
0.14068474740525047
-0.02977517948662822
0.05965642360330167
-0.0034263732838503078
0.052653037846213974
-0.019935765047811943
0.030251604286871486
0.10748832989479136
0.04700005227549372
-0.052029955354905136
0.056322226708662416
0.012918710194368466
-0.12848804365312136
-0.04174887162005744
-0.055970264868170076
-0.05237684109628635
-0.09126583484961026
0.008460093826792756
0.014412800112693296
0.11393097617668374
0.0014573401441064998
0.06929686847433705
0.017724725081634942
-0.08606909194125807
0.024259764795461033
0.04666289284251437
0.06822567619682217
0.014998099424180523
0.016026649026865385
-0.014493328275486758
0.03492593425955937
0.0023474292456632712
-0.04622014252213902
0.08085286133666214
-0.03061953017937182
0.005956721674687769
0.04893618886774503
0.021684802348912843
-0.026157639055277338
-0.04750821754694717
-0.06129065818322896
0.02376187997334524
0.020863837467788325
-0.003273217222355398
0.004320441970206628
0.02781543712519981
0.02564152132160763
0.029169465066113894
-0.028794188230518804
0.026664969591302184
-0.060206720626859535
0.05594892738064886
0.07961850619602587
-0.023768485221595036
-0.01772880595040603
-0.03059119096021716
0.053531670612609605
-0.06873527648714532
-0.026574303352842193
0.020311063249346544
-0.003102359412081071
-0.02510649301995573
0.015396250263961917
-0.024972830643588476
-0.013100640911810372
0.029622658689797677
0.06819415449071514
0.008519412401693946
-0.02870752713849268
0.05639707232149214
0.002605665369228214
0.0742458771072769
-0.02581499496865579
-0.0018425480938116215
-0.00684048152669044
0.04321325885524924
0.10879922169318548
0.022832685930131623
-0.050864087593564256
0.01455796449624591
-0.029240811454728025
0.09516569947909564
-0.027727901879187056
-0.030985976907243647
0.011990737940008607
0.09520274234957177
0.09383575542594112
0.08835560215685323
0.09193001922933766
-0.11109760865350407
0.16457680491361365
0.5326128107050424
1.0126611901275193
0.5222447408071214
0.16069518127542715
0.07057413308386391
-0.01833077734902516
-0.04668966284821605
-0.038305793468513406
0.09690139056431976
0.02597215207058022
-0.010762344263282245
0.05700035465772956
0.034395551387353236
0.096503301551358
0.013152970761869654
0.03446652408579244
0.01018367420675749
-0.0249674060521284
-0.011162245743166859
0.018624182855812618
0.012786738652410479
0.0022680418988199253
-0.05522233014204486
-0.006253834879651199
0.03439294889140175
-0.006216252764406651
-0.04854606939288325
-0.02386235739647663
0.03240070737490954
0.003043421348387731
-0.019288066281988835
-0.08948857559096476
-0.055988316348632786
0.010683859012347759
0.10267580022611399
0.005939595143717814
0.0011763946633912134
-0.035597468671615486
0.00018072806813062412
0.00708986680421445
0.06656026481011444
-0.03796179236853282
-0.05203635234885304
-0.014651647219065795
0.03945164232064215
0.009909421940202558
-0.03329412171241552
-0.024242229037407265
0.02392376484351144
0.035070509445598606
-0.0024658466520257744
0.04396444349851353
0.047551139332161596
-0.010207535194505978
-0.01114410212991195
-0.0029679296106649078
0.02920252808057924
0.004532789182544863
0.002571721754502612
-0.051522053176670274
-0.04377943585584567
-0.02030471559437269
-0.03579117413120519
0.13966483226920512
0.03109395699596982
0.0420418265102661
0.002878711980169308
-0.12392850353672524
0.010007803963514826
0.09293403550921181
-0.03770519365899674
0.00014305445815334162
0.003300325639200921
0.002527112230797631
-0.02435739016449682
0.0029011118691132684
0.04947437624328588
0.0961102735223176
-0.01599975529440936
-0.029874118931182827
-0.026020220287194806
0.024120274128383024
-0.054009361129673764
-0.04871299660394846
-0.07754965967263529
0.03160727586302235
0.00398092849677501
0.05908099805724681
0.025607730507275918
0.05207961566284561
0.018331158579290796
-0.025035825945783914
-0.037429662251205975
0.07672328870775497
-0.0636108192552902
0.025775310662627778
-0.039864453376006914
-0.030534775438521018
-0.009318927158726224
-0.1000321042591853
0.0023517112196287295
-0.07692019309224968
-0.0008259015216594848
-0.004317328206580234
0.04263622662484908
0.07634353204670398
-0.029503511704063148
0.03591994138196058
0.018816366486491414
-0.03757071464869032
0.034819565707281445
-0.003521287913465945
-0.05807608716627094
-0.10123117322410312
0.0923359905866634
-0.027056702941731958
-0.07405739551276427
-0.02244075719585773
0.0053854044386527
0.0494283366279797
-0.06622901679571155
-0.048236616318072904
-0.10573526393667082
0.03868094706769226
0.027735415599702086
0.014782530754274298
-0.06314825409863317
0.07154309555097653
-0.054882907866059365
-0.05885336696551111
-0.0008696685338683447
-0.038519070859342974
0.07109417142920502
-0.10082895892040288
0.008653724069801569
-0.05790201700367151
-0.0015123015457029717
-0.014494999650421862
-0.023473479746764836
-0.06190082892562096
0.02261463396849826
0.0066316182133768
-0.00795757637179067
-0.017398108724124912
-0.08609961627444962
-0.007639639316907043
0.020163418236161648
0.05073980822772516
-0.056390793487812674
0.002600838021036435
-0.10559413691727278
-0.0037821413486311623
-0.06318039880103903
0.010196585739251267
-0.010923936446266175
0.051516147276449126
0.009358577077151918
0.0974198829717695
0.44229945287359723
0.9874509088340278
0.5480198201358831
0.11448271030811966
-0.016627766438081334
-0.03066452124746413
0.067380598530415
-0.06588146669338625
0.003598760925968478
0.048188922811165984
0.012053577969328516
-0.07745263204635394
-0.063326174643882
-0.011956504896889349
0.025043747952303127
-0.05198454085240026
0.059661778654961896
-0.09019811672838307
-0.028462707313206506
-0.01806789584045612
-0.08219498771858955
0.004362246269658538
0.054500059194962286
0.07684197098097383
-0.08478825370163816
0.06081575007174157
0.11608994985446333
-0.05967157201829198
-0.03932902718386269
-0.05436092582598462
-0.03125798413015987
0.006901836873164491
-0.08205287594401206
0.09593815491542598
0.048565114502713495
-0.039741917929413235
0.03017691808305564
-0.05121519900274434
0.0432161657681568
-0.005326861629362488
0.011021360582392012
0.043017774398864096
0.04216253915840449
0.10340679302296732
-0.0298288807379693
0.0563868355756064
-0.03086141565715557
-0.03295104551107019
-0.010668683584853662
0.028638796223140674
0.08056283290319328
0.0071990691583887
0.04241639302411657
-0.01713583856391131
0.048136050391277406
0.005399548103718845
-0.0035525129925325183
0.00928750529986121
-0.045961395014092535
0.013114705291508391
-0.03796063231147911
0.04357501216876283
-0.0031093461738031414
0.05217865020174581
-0.05069023402713211
-0.04281250296622418
0.028714687782797933
-0.03064233108047433
0.05440609206669294
-0.020157945136567972
-0.05523352767499737
-0.031062826518338693
0.0619078233908948
0.028709448801265254
-0.00021186937404194398
-0.020700959317820487
-0.0033125492210825205
0.017448462665595892
0.013927148331020454
-0.013904167130756099
0.03276523145236461
-0.055974151481715785
-0.014732303333361306
-0.0372574777666135
-0.019957380334110236
0.08013385720062119
-0.07514442581251479
0.07966152874885146
0.06739753372960025
0.01756617850980879
-0.03229404176327417
-0.011367326023455547
0.09134905196290066
0.010271143936604304
-0.07157218899184174
-0.01204354223581004
0.024196583083954972
0.043896037784825606
-0.09418017464867003
0.021835759144135967
0.026957539001208453
0.03356260974082469
0.016396595653502637
0.03278146224948948
-0.06142941204812791
0.06856973349324451
0.1026303397059182
-0.03157740338861836
-0.054961481198357726
-0.07283612333486017
0.017809013217401165
0.006742983272092768
0.04377495126042791
-0.03794454646007723
-0.00841681885504591
-0.07816554734234749
-0.03218652520502718
-9.680571733720298e-05
0.029669743984482896
0.02362301364483678
0.04338777284802933
0.007543421865171153
-0.028346816750667032
0.0191041937076665
0.005440557559937265
0.016673346428662507
-0.11573694818751562
-0.015188424762085335
-0.015721511455386167
0.0399010370249101
0.034442721759247154
0.038313823690222154
0.04202438124658156
0.04837190139800785
-0.004921892625747836
-0.050724542104845366
0.018681523318937347
-0.04209637493093225
0.033364514815402826
-0.10226553737852997
-0.05715515586941955
-0.04409952990178571
0.022596499034752665
-0.008913340364552911
0.02322159463292029
-0.044769165028277276
0.04190208134207626
0.05008134151432823
0.020285385396368844
0.036770493975788646
-0.006908829791277757
-0.03897036357263129
-0.07498916991622634
-0.023133432098808564
-0.006764495153249131
0.06627527916308612
0.4915765841730638
1.0126412616291134
0.527574502968578
0.06670813897894892
-0.0788053572850003
0.014022664119432947
-0.046452669423893846
0.013101626126337708
0.09159240387553912
-0.06439817108824474
-0.042034392243878976
0.045607911078706403
0.020743239806357575
0.016317296315736026
-0.0763135452164958
-0.08642020256909447
-0.013138730539250583
-0.025778577472895886
-0.08043531481045872
0.03049682333513531
0.04201030069737292
0.0665191536830807
-0.00585136632052425
0.024598711236584168
0.0016794502113683882
-0.021924839546556135
-0.01746470408909306
-0.016281877729439547
0.0318255843343196
0.011220965744499283
0.013090532312121213
0.01253001467255076
0.04654638293364227
-0.004994261217349575
-0.04343585218789048
-0.020653928632065346
0.04747545380837733
-0.09079680674391752
-0.06525637672618917
0.0021473286093466044
0.043575198134009875
0.030517782871713278
-0.07864318071150421
0.024115618507017596
0.03275797604686211
0.03449490090225586
-0.053963776672933055
-0.04408565318491032
-0.00251888945117302
-0.05403123106340625
-0.011193632038966221
-0.035912396907414885
-0.05419202190785919
0.09638107513128222
-0.0076500508540514045
0.012400188841633127
0.05281790325450733
0.009124079466810667
0.02687800879566303
0.11461194090171992
-0.008781372969569228
-0.014331890759240077
0.028022410212267274
-0.013640971393035188
-0.01290367454887379
0.07229468192625303
-0.08589925706175133
-0.02514151274418157
0.0064455699210455636
0.0027524414649612
-0.06415002727195857
-0.04376939660401957
0.018502322364313088
-0.052513136124871386
0.015191033305354632
0.01308139394041642
-0.01406345144277302
-0.10364844787735522
-0.07509202918808777
-0.04136494868676487
0.003719276959144935
-0.01802223097286167
0.05215983178366062
0.010333035155753206
-0.019996674507186802
0.008349098709297327
0.07708554504949604
-0.0711140105162558
0.0942069282493534
-0.04475496249224666
0.0394514324825762
-0.04367632306984873
0.00033329172500483036
0.02518472466487357
-0.11253357404134397
0.018346031810420726
0.04316172017405476
0.05834484296073459
-0.13628129286687066
0.02352287477195856
0.0011472409639101354
-0.007988339919448058
0.07888997564188269
-0.06152834665912293
-0.007677140881366048
0.027570232885708465
0.030583111300506862
0.14116073163377926
-0.016888939836042265
0.003429655939595363
-0.005194415744012314
0.0019495285294867577
0.03531981450646464
-0.05258111927942077
-0.01582631046518009
-0.026793452189578095
0.05126369844569348
-0.04486280099936396
-0.011490793406342051
0.050282985563941174
0.08831938428143511
0.03386411111719203
0.005469751213419882
0.011507803141631495
0.030570784630827616
-0.026929360639707772
-0.05396744303686712
0.08320061687741653
-0.013707115620012348
0.038248170551493856
0.07621036651257128
-0.09593068812980847
0.10778190610699652
-0.004400284971575802
0.006507147412316328
0.13970827120488594
0.0733982090690467
0.004133277970752535
-0.03141208155127103
0.01584950689593788
-0.0023194070383501
-0.030908512731307503
0.03529348366693799
-0.029679488729216375
-0.004614327002933588
-0.0786065283050606
0.01429033381046804
-0.007057432898267168
-0.03689342914643628
-0.027704565236855334
0.029083168283381467
-0.0470123259624487
-0.0789536611599424
0.07700514091623442
0.010224508370183773
0.07948043828460766
-0.019969615471372715
-0.04254840759323433
0.16003130446555164
0.39694623176125043
0.942055470836975
0.6001420856094846
0.17296832007805218
-0.04738736926740825
-0.03592151973154028
-0.02721007080000015
0.022864284920116093
-0.09182777632994316
0.018970197401390724
0.09093614973161762
0.018928672691018892
-0.05576427412838855
0.028999101720492332
-0.08708033955283323
-0.08276746731476886
0.006108442821368805
0.004071059083842809
-0.058577584648467865
-0.06662585714799138
-0.09945775000310933
-0.10122778818773014
-0.0031914535513937778
-0.04846266191427645
-0.013495646305248256
0.017536508241480914
0.10030744400758412
-0.011501304535605203
0.05748010315059028
0.011008743679182392
0.0464594972587748
-0.002114057872433922
-0.07278514936752853
-0.026688202001950653
-0.034294104178287474
-0.0767941446747422
-0.004199496459895504
-0.009752885315545412
-0.04576042005478952
0.015338359393763677
-0.002851183316958015
-0.01694334863753997
-0.028146325502282344
-0.0005999868494946395
-0.014454132201204157
0.07606329882920243
-0.0008822526768535644
-0.0019864414814100262
0.028534288147592936
0.08827735541945794
0.040207703012722834
-0.012448287742534172
0.07284901015683241
0.06869441978026004
-0.04346909226380648
0.043479745147729745
-0.023066828252108734
-0.05736404454331772
0.025223458791549275
0.024921174445189598
0.13092356535738264
-0.023777482605216893
-0.006858137595434849
-0.058664326626460865
0.008608220343677428
0.06353388945014936
0.054566213531084186
0.11107249198763908
-0.00547668989082578
-0.035414993843212624
0.029639025971484406
-0.09143052207430546
-0.01107383948991717
0.00795011942131996
0.008201712943570168
0.06318818345384052
-0.004245903141901583
-0.041052773461458976
0.10641602982885773
-0.01357743190754438
-0.0006200567828430419
0.06465008506107887
-0.05572986052474387
-0.022650496320672623
0.012375739757227786
0.047542058706053415
-0.02347550843922372
-0.01627084105678075
0.01880954495219633
-0.0029027558419105243
0.010873062978910022
0.05410849933093288
-0.06449815191022534
-0.011505469456987317
0.06761988199081782
0.04133106773396081
0.027240031059767047
0.03124145690632826
-0.013340924540406624
-0.0035618832697083347
0.06497933402382011
0.03070702326180354
0.05472791270849602
-0.04811455278692646
0.01211324061033913
-0.022754095769592985
0.03411172401851856
-0.05033753614685123
-0.11814922637249603
-0.02026414413462492
-0.07798090398101303
-0.06108989947195775
-0.01789886653697991
-0.058715492607997966
0.026735801359022145
-0.04094457511785013
-0.03419372873124116
0.07263549384433649
-0.02224108425644246
-0.08983986710757492
0.0013760757420596655
-0.033514884925264325
-0.02967881876668951
0.04215767904820168
-0.09033240227617159
0.08463311943910842
0.01690696926638108
-0.021034609402380472
-0.052673572134105374
0.09830480055567642
0.005118812196357374
0.0056084332593323025
0.12716280177679984
-0.09504849878229556
0.10915867562512765
-0.0106114957095585
-0.08476316845594725
-0.0014811657662178969
-0.005979437361885473
0.017399871629954138
-0.004641406853007136
0.02244517152886736
-0.010902262928142776
-0.009400309014376626
-0.0063747685902686025
-0.13328202047489168
0.054491875480827984
-0.05594378886069921
0.019537004098711567
0.042888153674507795
0.04849655843161113
0.01273638626730566
-0.051113336287496175
-0.02832477945672898
0.09718721874474434
0.502789806032867
1.0107628076426938
0.475353713101706
0.20368652515177843
-0.007283006823882968
-0.05959875671639038
-0.013015322428105831
0.003164591203847217
-0.012508662581980244
-0.024217581947931045
-0.05499313025031534
-0.026105167832123445
0.04440031201069898
0.03646190493707727
-0.05327121711725217
-0.08726470596192032
0.016828845934970027
0.04151313698378167
-0.035546705649956704
0.039148660642908305
0.05913159507375657
-0.032298665049424205
0.021187933619080626
0.016889725380238047
0.004460752743692013
-0.008400211778016883
0.10473718635886978
-0.03538784552766593
0.0003066581394037699
0.042665375250003086
-0.1445132975996942
0.06310841695220783
-0.0026516114266709957
-0.009394092801136393
0.016662911844000945
0.044025870456152374
0.020913551134814155
0.0857313816952596
0.0024414005045988937
0.01344080889285056
-0.018134661312709018
0.1406258645348237
-0.06636919164048104
0.060284438881236684
0.002606492823050699
0.0828180735879943
0.08463344501983344
-0.060204153628347835
0.023740199810428145
0.06805718814254542
-0.09118147004621824
-0.016448913500136726
-0.001669985060859091
-0.023651402770013444
-0.0441185157503287
-0.0390681288566124
-0.10124540520436776
-0.0033237950209729535
-0.1036889955049635
-0.006485114159686049
-0.019046895872873833
0.029699919532534255
0.03654758652568666
0.1371417347311612
-0.054213368621054275
0.051057397069343695
0.001719442697841003
-0.015653423697097234
-0.03249118102711904
0.0736172879587816
-0.0038369766209608823
0.07097876116764647
-0.0846207344716015
-0.01291995579698217
-0.05835601328646054
-0.05935632360812531
0.09261012776424356
-0.03019780140963002
-0.04746017924462104
0.005304618324185252
-0.020092016708921186
0.0241202310868094
-0.05949055602104506
0.09242344133828781
-0.1154830817267131
0.03497348222602
-0.04662017414686997
0.003156355176252446
0.10242349661267017
-0.046388338263672314
0.09219030222937455
-0.0204700772746724
0.0038502406967702444
0.06138716783569642
-0.055823139739103536
0.0035063849927138347
0.0008475551893563869
0.042898068991696126
-0.09610474548637006
0.018899715647764364
0.058414311307924266
-0.07883982424285954
-0.018532529065863015
0.12046241470289816
-0.09592165733036483
0.09145780300542543
0.03513388259442501
0.007466664458847236
-0.10380989091102022
0.007698496889494755
0.054171640128447565
-0.042102180691554844
0.06077885253686868
0.03686740875230146
0.041556750288516985
-0.0034903748635804668
0.0788532994085152
-0.051819035959443406
0.051438539210540625
0.007311769949526104
0.041532399844782
0.006752930254197051
-0.0030199509188395222
0.00628747700191555
0.03565002590108334
0.07629935866224687
0.03767863468940394
0.00043747064660864057
-0.10580290490572467
-0.04345924676765926
-0.0504168163832762
0.07098068564193272
-0.04804614942040101
0.0038555387312606765
0.07468964534799848
-0.09147462932528157
-0.03378728702679569
-0.02622143378690045
0.0344005644442153
0.006842659580430456
0.010252767701079819
-0.03947126842028332
0.01673215707594665
-0.06242883019066051
0.003703750635609413
0.03886203946526838
0.08532390902718949
-0.022903234500253094
0.06454343420155617
0.0239561221810868
-0.079371611851935
0.015604140164864864
0.0821989265664467
0.056981221105187295
0.5159007760651769
0.9827098196178098
0.4397052191739272
0.06458826574489601
0.04796858327432938
0.03480562401013572
-0.020889111950620855
0.059937829958416025
-0.029980541649715853
0.0666242076134959
0.0811687973089293
0.08351653556181465
0.05743010967495529
-0.028920841810656774
-0.11419616820814878
0.01254515597245287
0.03911861588246171
0.021550979302675684
-0.05040284041309587
-0.03220327912687932
0.027103365000792152
0.009062086800300073
-0.041333013428165234
-0.02731392876895495
0.031813180569502594
0.06729420928923091
0.059630784814491446
0.040144551016322666
0.03272854505358316
0.022706363589270025
0.003782407428556821
-0.04017681811890439
-0.07235075892466945
-0.019167005806517645
0.07746543173754766
0.008749600131549982
0.018029119786031476
-0.0013724615603583137
0.020206709247411043
0.011003030593084622
-0.0012445989459192487
0.0016478462129740443
-0.034665393799218715
0.07435671961011872
0.02487148859830873
0.1300984674891806
-0.0415747740776492
0.014115635949636288
0.08261610117111916
-0.0452381816573981
0.007107135559172902
-0.04904522551870628
-0.0009183352164782162
0.07985493347161726
0.024993016432460394
-0.019923189886777333
0.03226221698901749
-0.09805612261578091
-0.08047559905434497
-0.026090788486172252
0.06910443831615386
0.03467560925249526
0.04445782267812695
-0.019449343908877384
-0.008587423549833379
0.0021034605079953746
-0.009177976494298757
0.02699450413187231
0.07780593456407965
-0.02790885260045477
-0.01768721417548774
-0.05168520018943822
-0.00016451014476446093
0.051643653183662035
0.06899344934761678
0.007746415902920186
0.055203408431670764
-0.014528766178914097
-0.06298014938593123
-0.0029804889896858132
0.04115092755857394
0.02559267206041188
-0.05078386784017189
-0.07658398653682445
0.08847500785409844
-0.008565463248979246
-0.05480693861223149
0.017151011330187677
-0.024308921161409102
-0.04789144850601438
0.18889339101856784
-0.016009279579714212
0.04315883996287114
-0.01454237867678534
0.06607076730530194
0.00677429620018737
-0.12436811553495511
-0.007861630264060527
-0.04679574698241706
0.03292951682049782
0.1442888977106912
0.07161899328772409
-0.013007880630851468
-0.005470908663530307
-0.043575848084144636
0.050804356544877
0.07813018746710261
-0.10569778245887895
-0.015382571358627698
0.005739879297051306
0.043987494153584245
0.012018012180067726
-0.08004277509442599
-0.057760893797176076
-0.01885464085561436
-0.042009027777654716
0.006095544811485408
0.0365359910631447
0.06756830991249102
0.03624912780632629
0.0019650186374337484
0.01980352649267757
-0.020468319804844856
0.014572792501859859
0.013979410917513677
0.05816453530999112
0.11577472608378936
-0.016300146760605674
-0.030256624976922736
0.034701194926567036
0.011595036874540249
-0.012158268051443981
-0.051964265108049794
0.028521395779754294
0.03497342324440475
0.019777210515678437
0.022485841799607807
-0.01630334069438403
-0.0018436334972014674
0.046811088180745385
0.11849882104848611
0.05034606602864014
-0.07165221809224856
-0.07139189237537773
-0.037498300314069304
-0.04948051647453394
0.008398425043601407
-0.027939950774678347
0.0042537644751051654
0.010521158620275237
0.04866735227199855
-0.05408830070999285
0.021859152469709226
-0.04113869352983324
0.011967421234017051
0.05343967895016555
0.01761254197069796
-0.0003822171319283438
0.0788230201152157
0.5823448711875064
0.9998451700531158
0.5072433331140972
0.09875888144697835
-0.02257330803715335
-0.0522613496746465
-0.010651731997804108
0.1211310979370506
0.03344623608868237
0.03805605722147224
-0.017926200075154063
-0.025908047128811392
0.05742729947643276
0.019198202595640486
-0.06883384076661572
0.019229855014865103
0.06101599808669594
0.011523080890813784
-0.038591522290512534
-0.028050075609435635
-0.03098979565086324
-0.046589514150983086
-0.012551402385076394
-0.08955967504008577
0.013696315753146164
0.015416504138329066
0.005746370560387393
0.004533677792515003
-0.010922014053970065
0.005905582838013955
0.015709239320664422
0.0643143134539955
0.04877599788315619
-0.007277398993538558
-0.03547499104351664
-0.04311096326882823
0.04686510591900911
-0.02167530794650817
-0.048763468789801916
-0.0002754530515399438
-0.028104743268201306
-0.0379832581602573
0.013614608560383988
-0.03536626980447644
0.05270275188358062
-0.054200394368270746
0.05291668343042534
0.037907769352443506
-0.060219126627577536
0.04139388409177816
-0.05729236729596498
-0.001681121081494676
0.07436060221038136
0.002768314594223892
-0.0886447619422995
-0.0450132087470162
-0.021892096806465422
0.028069420363774605
-0.03766511927171451
0.03620494779117838
0.08340558925076166
-0.04856238398831475
0.08919493585446936
0.059663053581952966
0.029638100224530818
0.009029129548259277
-0.059913047127369425
0.09917800490172868
0.0968009273325474
-0.0008016783163102885
-0.08029786360714905
0.06386634983683612
-0.01749626035157369
-0.06850621780892151
-0.0011461257394202128
0.040068671942363104
0.0381233037345584
0.020711736972430235
-0.024631187543363974
0.10976207170964046
-0.00787020074652998
0.08477952379811626
0.006169019524064262
0.006846770500649123
0.02650966415050613
0.029521515275852075
0.02706335257227835
0.047471485654560344
-0.11399271806834986
0.030297623337744037
-0.03287497484926904
-0.028645624183856216
-0.02670452875240061
0.016330624656604682
-0.027712436358708837
0.02498334779522406
0.020862156776188953
-0.009140248211370793
0.017545480794792123
-0.0011950205106614738
0.1290268274595166
-0.014067457806408015
-0.030381816927621833
-0.04357218174722058
-0.018897405004626507
-0.04906235487712115
-0.005663747434051443
0.0419555199983416
-0.057829321307527194
0.07494303375337066
-0.07750823374820122
0.005604622197811052
-0.00014113749788099397
0.0890646466354002
-0.05922846395768782
-0.004229790383536087
0.001374616150119116
-0.046371193875744114
-0.09300428506711644
0.04178312859052092
0.0013291707116373475
0.02527265844122603
0.018833607836478986
0.042596834432172936
0.06526367083272692
-0.002982626196511728
0.07772017207449164
0.02271054293752965
-0.076608948647522
0.04157088872246599
0.048099750109024085
-0.0016152864721551271
-0.10119853522780137
0.0060837598796770215
-0.14770971271041364
0.024068684963995075
-0.0286397442322351
-0.03185492651221639
0.07992627128269013
0.017641345472303137
0.05554088128443127
0.024117985218146468
0.014765341952991774
0.008255717006213437
-0.023289509653880425
0.03221352834444817
-0.029549273322758925
0.05081973162667374
-0.016658777613570798
0.01017345164909683
-0.1226523563543094
-0.04724083259002301
0.014270873059733106
0.04660503126345704
-0.01532600368277369
-0.09595461938496337
0.07285907549489064
-0.0025469938965197933
0.053442037292838244
0.14982286294439348
0.554423957390439
0.9333874613485839
0.38532920234965745
0.07253592338551312
0.0018689415974474186
0.01827350962669121
-0.0034872201789397125
0.03435441892220275
0.00019878431662172341
-0.009022512131632942
-0.04097929615111642
0.03422781718035746
0.019791407605798075
0.028262799703450636
0.09557361593081598
-0.012440756525303924
0.04108957630729934
0.020997751485716868
-0.10613082850173734
0.028754129196181134
-0.04056575774865019
-0.002070975504022965
-0.05669650585246995
-0.009885255749853059
-0.14282946260767546
0.009232361697396723
-0.04737461753877653
-0.011488133833084956
-0.06773472104518656
-0.029165650721234188
-0.025420049345007037
-0.061152726882512366
-0.009342423381478658
0.045306914504496226
-0.004193752084603613
-0.02824995069972741
-0.0049632061223983176
0.012368145655438222
0.08034908306807388
-0.05646078246563191
0.03459580010717913
-0.02390054682776654
0.02961934581824695
0.019027578905969504
0.033817111867354435
-0.014582851172541215
-0.075657059483188
-0.004554374060403202
0.007087032264439942
-0.00022117210150478597
-0.03715172658329226
0.001157661373439954
-0.03120910710750805
0.03616141788283197
0.0008050788660406889
-0.04291735678918911
-0.018660746685546552
0.062177929325518626
0.035036651362282054
0.07100132942326677
-0.07960950766779261
0.0339050352375084
0.11442380108732056
0.017914547468936858
-0.014131662166488227
0.0012658220399978976
-0.02967799422376738
-0.05950682348953689
-0.06730898875445943
0.040422917657032355
0.03526492711588134
-0.015683530058052602
0.052194504512645123
0.026481997145588715
0.03572349783331312
0.03935539142261646
-0.0467303172549068
0.08383303454704177
-0.012960476944227417
0.023297925112335062
0.010609795352371169
-0.13243726575505652
-0.0170617571696845
-0.05242618993634771
-0.050878159897270805
-0.016499635788274413
0.004131952246146149
0.04278214743100259
0.0022699568561175055
0.013540785403037076
0.04522751927919627
-0.012734712499472106
0.0197279590011645
-0.03889896920702205
0.03831237659839019
-0.029100972195724342
0.0696104514740729
-0.017367232687235543
0.02870617818903753
0.0007779526006360732
0.022449845948543334
0.03870720167741115
0.03433693318791827
0.023184103951515603
-0.04828860198403
-0.053721584054342825
-0.08048660166285064
-0.06264183068338969
0.06361988517367256
-0.0874954573952511
-0.0188840553587669
-0.03919144412182323
-0.03296908675241719
-0.05933522718772656
-0.027478008410630486
0.07597627578727631
0.04179145126139708
0.04808987367502879
0.003346565857132003
0.014329940442744733
0.025790636637290056
0.004356960245802122
-0.029509022084344562
-0.08465961228815459
0.11295154241646897
0.09658901609111702
-0.0945807907196076
0.02373431586413779
-0.02270131394106536
-0.058615786373719815
0.07073168657054484
-0.03714618486233485
0.002407978051797847
0.04656526829459329
-0.07714909011404185
0.05220063073470793
-0.05587188123963182
0.05578991318053844
-0.08733004020764813
0.06846499813850593
-0.05159077632524115
-0.06541860057860326
0.05704277425727559
0.02888451997035001
-0.09452176406618203
0.0397937894072454
0.020392752689036592
-0.013289534953301064
0.006231363456393576
-0.011900677622024743
-0.07467722220058225
-0.11090114051349542
0.06879472577155703
0.4674100207732084
1.010656405143222
0.5086880561194823
0.1595154041577758
0.03127388044172696
-0.0281852876376809
-0.02073104242922541
0.10591883495573864
-0.030162591702824454
-0.044660234766929194
0.04594405852256069
0.0569075321177992
-0.006396934801152479
-0.11087166207508233
-0.05815325855622214
0.03244335731667405
0.09884989822317794
0.04253757842981751
-0.0250002191057153
0.0005952738511504015
0.020037106555713738
0.05063690341555589
-0.0029466119565509995
-0.06028251153495309
-0.023972785162000868
-0.0582562443109128
0.04418096970821655
-0.04343394078285355
-0.035560466414478166
0.04219143951250787
0.0030677187337311614
-0.01172576670215832
0.042214145878207675
0.04359413140839553
-0.05285381333818742
0.014629773548797726
0.09059827536924336
-0.04620627190403765
0.0037785255597821117
0.013635297343059155
0.07887571080224558
0.050625477492302874
0.008352798680529773
0.009434628707514853
0.014130532878900943
-0.1289154337479728
0.07087816157623937
0.042083822350925955
0.011748963690032352
0.058139639216918795
-0.042709340587131245
0.026909761874257355
0.05933097496616177
0.007475026126977882
-0.054164416789392295
-0.01803410489936548
0.013155967222870652
0.004343605783291852
0.04278032834354293
0.07120377407445026
0.047886733739819144
0.01851276494133443
-0.09399410801087484
-0.031125170836073825
0.02113171291013661
0.018625270681502257
0.010165706773088914
-0.05840335538477625
-0.02719115122082007
0.023657508631933277
-0.020148443714714047
0.07618389554693725
0.012982500235490614
-0.07291811450076384
-0.0009794459001601183
0.07556747095418327
0.06533874907397852
-0.09088824816748198
0.033731844938885376
0.00452477153683182
0.06567046690068333
0.026232241440967353
0.004056376943511975
0.020625114160024056
0.03660323785553226
-0.007148209732182023
0.037823338000070594
0.04665315298939963
0.047422574153342695
0.04975953549133047
-0.03417691463806777
0.09621759342071788
-0.0940063608283066
0.00739949246489247
-0.04870869002346425
-0.044771096514583275
-0.023997821691518987
-0.021038620487919248
0.1352856476035232
0.015590331009428927
-0.0975849808232214
-0.01111984157734864
0.09949954103259927
0.042092756301089995
-0.036576807318339837
-0.0046452693607922394
-0.006409406713337323
-0.02374072860743535
-0.0060435088747818055
-0.000967984297973756
-0.03844786404114787
-0.00019235638234842015
-0.0028460029967770865
-0.0309494116521207
0.04003720297186396
-0.058386605742572706
0.018772689698845255
0.06751717063863737
-0.06353734845199781
0.0012972610267233302
-0.10616720051938139
0.013874222302338016
-0.05065562723140077
-0.025855177801155323
-0.012240636406552267
-0.08862955241756927
-0.018465523361198877
0.10272659852577326
0.06762534008194747
0.05317257859013783
-0.018693889104456525
0.018250158053974976
0.00817868065028656
-0.020020581576925676
0.126290605387397
0.066382356667215
-0.05554765892572919
0.01952424925778506
0.07133207613127894
-0.023557118040250888
-0.05699706768314294
-0.06026375940015928
-0.056440280214604545
0.04439639255653163
0.011437826266452194
0.016602836101383373
-0.0016516462659004938
0.0682823416329975
-0.03191541249543763
-0.07455368392678983
0.08988741725525433
0.0011346346703377751
0.03666322094043274
0.016091701576236097
-0.027216997370098042
0.04320915895023444
-0.045325501087505736
-0.01623959401904088
-0.021754964933385777
-0.03222427679115159
0.10306114349680912
0.4967552773592934
0.9384978471171077
0.5490451294957689
0.2088447115794444
-0.07259085831665062
0.040412204417421216
0.003572177955322748
0.05598814809570209
-0.016690149543870332
0.011132060239172799
8.527663470048455e-05
-0.04210831722083716
-0.008977142775986094
0.06147948310137857
0.08161992496465792
-0.015260689466681816
0.000990198354553514
-0.017059322292100915
0.006990694173312994
0.04737371028197602
0.03434927525756972
0.009898745272192854
0.0738170426223876
-0.02819595004808866
-0.027757970839670278
-0.11586781679512725
0.054067663796886684
-0.03672256902571495
-0.013518592750965132
-0.0032503418896021245
-0.09444801259464708
0.07521891824532359
-0.0008753590319254544
0.04347934904117885
0.01964025891111345
-0.015736553595332037
0.02229280309509209
0.006168290643610333
-0.06068026086581894
0.013405196057840591
-0.012075963212089287
0.03437473746517305
-0.030502842028050665
0.0074426646985023825
-0.07390005819200522
0.06517556043180384
0.03346965513035409
0.048591300485716596
-0.021101012569776378
0.0917312176201665
-0.0983165125335555
0.027272165950672507
-0.06668976005538922
-0.0234799747030653
0.05001050652784812
-0.026380977336920408
-0.15332894749972667
0.06852676790913068
-0.016269604001502753
0.0655050643520288
0.04908165079793035
0.002608455874071271
0.08112979095835365
-0.030353604771714084
-0.02122593235492168
0.005122125622045091
-0.05121204313554667
0.06322759304868315
0.004319138486055466
-0.03988524570952942
-0.007201187395033734
0.03544075562257559
-0.026161469548800838
-0.1321152408874582
0.04718891468836352
0.023690678842021223
0.014408044244690929
-0.028425083764096984
-0.021877646948800046
-0.061815748656168124
-0.015045612892477099
0.047238723876728096
0.0366247488391915
0.005086813012801
-0.03241140945449297
0.027567420955809937
-0.05502536473954666
-0.001402514364821856
0.028851904158088505
-0.02902795156872074
0.008171294387092668
-0.10664892939945897
0.09441294548181649
0.04258821342459477
-0.033622633294048354
-0.051023707963817534
-0.004967521313578715
-0.01976897768252309
0.10795326675471124
-0.01782718892950892
0.025016461774566345
0.034129443668611405
-0.0021721393129887035
0.05499135471295044
0.01823795755589809
-0.01808047174820002
-0.02067102625598632
0.09579600883660398
0.12124752579855931
0.01670395794523584
0.026977096265677288
0.052363504988909765
0.011776079034282919
-0.02455619671601854
0.06709192240465471
-0.0966653528874308
-0.04835325781369679
-0.007940335708321804
0.035079874313848326
0.030669425373542572
0.014294728903246252
0.1142492617206036
-0.03985398885476839
-0.020910977817246743
0.06098652147668418
0.011966607673684668
-0.013368882122594631
-0.003834195522522533
-0.046452551367989765
0.06498002749286602
-0.10384610724441697
0.03213821767245553
-0.0350067820605713
-0.05581525271395789
0.017168117599435075
-0.03300562603626776
-0.019877145067137447
0.04215567286932484
-0.01878805287634442
-0.005848027246683691
-0.0857242755437194
-0.021499632068977304
-0.010014142020149485
-0.013905730368068534
0.04458993459095007
0.02417453540649237
-0.024523682340509303
-0.017338848561903267
0.015158936080097763
0.024415996686728687
0.04525718657335173
-0.03569625995743536
0.005291210442144382
-0.020733636628383848
0.057129676036100946
0.04963910000351092
0.5019399304193237
1.0566613717043858
0.521261176137695
0.07731284601401883
0.017941520472314097
0.010614718916273563
-0.050685945073933585
-0.042329280612035225
0.00527453542282077
-0.0025912168011685693
0.06003384670797224
-0.059621278308577975
0.007557070185802012
-0.02694060584568512
0.114688774127576
-0.014921974011568213
0.027498761036373116
0.012957033997124865
-0.03348228340294703
0.043965952810592034
0.014151093976250528
-0.09181609369081334
-0.004108646414533581
0.039301569716118395
0.06575852086792938
0.04360555326392407
0.043918064962786815
0.11360711820155332
-0.08324469332733915
-0.09189790372626404
0.025859859415728756
0.03547510839642382
0.033229329867107686
0.0182093937438181
0.07894857207951143
-0.017260366632463036
0.010569474547157016
-0.05601667074364666
0.023238443605325964
-0.01975393035736483
0.01297921786565387
-0.08523848111149579
0.0706682936022552
0.02446304093093396
0.06272315144480987
-0.09931196637628298
0.00485876062447242
0.015087877098193548
0.05181531051109679
0.04465527381816522
0.0664513849434886
-0.026077561626661628
-0.13908088660316806
-0.06190806534582132
0.02132535404505949
0.035478457055672354
0.03537556328695055
0.010374008690992358
0.04851847544882588
0.0011581092631456483
-0.04584782387505973
0.011001685997234051
0.016529088839411548
0.06954124056577224
-0.06858207409397188
0.012009419717093
-0.05497113417434244
-0.1479239900811175
-0.028109975192807862
-0.06391059553263174
-0.04338252614341245
-0.024651482114396057
0.041663376243928095
0.08363049533503762
-0.06721330212537974
-0.0075287314942104715
-0.056991544561330765
0.07389408736672907
-0.02014543194418919
0.004199618608316453
-0.08077818899726735
0.05501429110935057
0.060646429758479184
-0.055555344952817845
-0.057159223156936424
0.021146073175436344
0.03429123067065979
-0.04076117497541228
-0.015890625752063164
0.021743438780013977
0.0654565492365217
-0.03553125772393964
0.00035291437110163175
-0.002341614371443678
0.06151709674226002
-0.03675647304569732
-0.056711521576463975
0.007918558125096292
-0.013897400910473407
-0.0036288416106092704
-0.027895804225760767
0.050957101561461486
0.020197832389007683
-0.05747291073743147
-0.07971984404313841
0.036329884061927525
0.01993049121533222
-0.04635970497834089
0.06687559273359851
0.03636046691298801
0.01010053117492767
0.0035152982464553614
-0.10021988671400511
-0.04452430603560904
-0.026293992629145037
-0.018211126166175286
-0.04408851367324041
0.04698634791970385
0.009156553071094385
0.042958072919568206
0.019427667309387525
0.035952892042787135
0.012699565627198662
0.006499407814123878
-0.02377242911178533
-0.040507488799050445
0.038718515359906155
-0.06209058140177533
0.05954272196704873
0.02983432741341767
-0.00767950486300293
0.00750322252817305
-0.022037126339835962
0.056543402084026056
0.019478821967551917
-0.040516614303567934
0.04993045924181196
0.04679675650123482
0.046993554438236475
0.030333920735068118
-0.07232279460340067
0.08099176569829604
-0.0219058564452954
0.004985692048236328
0.1319655269338162
-0.024059887205919298
0.008904018972614836
0.002670051614842259
0.06455662096886704
0.062432738304415814
-0.06441278352343557
-0.022823956897091744
-0.015587709080010776
0.0027577543141685153
-0.004421086902899469
0.034883695214981414
0.08583333517288536
0.5475846979661374
0.9742152273240352
0.5255089142901502
0.08546933209363007
-0.09940405979235509
-0.06042027244952741
-0.010815640216724522
0.01714640006842348
-0.01971020351876454
-0.017829573703341862
-0.030420151465891915
-0.020171156427641293
0.008205436041396527
-0.005038002350875475
0.04128946287983231
-0.011017072122345584
-0.05290643682673355
-0.021548955050087196
-0.00869863269540736
-0.011669215839741034
0.0001918635891015596
0.04793182325259436
0.09342863812714518
-0.021007883736716717
-0.03269131006573343
-0.01379130771436574
-0.05893455073952052
-0.02842021058900315
0.08768099852875207
0.023606241920144967
0.04534284851041606
0.01080048807994364
0.05517807978014414
0.06364706683163161
0.03208376411328985
0.025752100047650075
-0.0026257642100494284
-0.05419751708376641
0.10530612483187547
-0.019792296714408276
-0.0770709895318251
-0.008613577870630242
0.04814378463646736
0.031649862904364674
-0.04219132066967466
0.05806550946911535
-0.07892201156446166
0.021326167053140575
-0.020772087865612063
-0.023236154169790676
-0.0896441256029503
0.043839748835914925
0.049123401681121726
-0.028011810352612493
0.02656010458388726
0.05508083954970751
0.059179974287236314
-0.04218797947567557
-0.008779171411281745
-0.06334373333478789
0.008832149514424388
-0.011213605917024192
-0.057022654748771356
-0.009707346672025037
0.02816062108035941
0.015740823065611483
0.03728508094718947
-0.060855638427464026
-0.03818273555416086
-0.00195564813365809
0.010927612239756612
-0.025036881951347706
0.08195805145319424
0.03404108511925373
-0.11092205496188119
-0.01844625613295533
0.08446028426819026
-0.04776737244906568
0.014617236208915106
-0.036315818009719766
-0.08527790796837093
-0.06888607327685072
0.012602732765943987
-0.0431397424294111
-0.019704139040102087
-0.07034504972804194
0.030764683854784505
-0.008978353633011705
0.05192431759231856
-0.017265704560698644
-0.029869001902416772
-0.04052285966251824
0.005861864325773344
-0.05671405756792283
0.02135050183973979
0.09818867198441694
0.004772780625071933
0.00396506402674583
0.04062139949508537
0.06433462324909087
0.026102988258071603
0.025076794531743375
-0.046911961538478944
0.01526365852996689
-0.03754143704274964
-0.017476843986315146
-0.03045402838794586
-0.00888457601003073
0.016750816815415917
-0.006561215486750265
0.016283755506300044
-0.007011042629792886
-0.02698480475806165
-0.053567763337762836
-0.017175705738861177
0.07269226830948099
0.13745621282536932
-0.11848013117798506
0.0357064401553194
-0.021080015432689808
0.002478246413665714
0.06899809972511957
-0.014066688463787778
-0.059106299856153705
-0.01855211672399663
0.061344174605348835
-0.03238134067681426
0.050999582434892214
-0.0013734911609553115
0.06487598541105968
0.11290288203569393
0.0344328785632484
-0.022246859999759724
0.062194872322308394
0.08359192757797212
0.043408773858943886
-0.05503619123149454
0.10009103466168848
0.034107478847453396
0.02160495881265932
-0.006867716029543696
0.08155866038232495
0.04073574754544283
0.011276761915802362
-0.08869374525576679
0.007983220010065155
-0.0066414422115192665
0.0015654128390108109
-0.09067722247250729
0.022363685148340053
-0.08913895860280827
-0.00997565344291262
0.13631799321333787
0.5278712495033224
0.9964596998610341
0.4176845493856649
0.03496454302751863
-0.05162175177644949
-0.05077750383131108
0.04541182510690041
0.028301889231738236
0.01711303484978727
-0.005794968508818499
0.019819557499968884
0.10449531780827928
-0.07675096718984198
0.06024135069881135
0.000953242889307083
0.02983095730777968
-0.015472763903215093
-0.021729048573055455
0.02912512870799616
0.01709212028255203
-0.02780728793572846
-0.021616086183653203
0.04256935293625397
-0.02396856168187792
-0.011295592258562179
0.018341537409032934
-0.03651030196829647
-0.1363927585705865
0.09123398496023144
-0.05111337373293007
0.059880096413863854
-0.010197956399023813
0.07247086344032976
0.07109541403628981
0.07173239891288954
-0.008407294834283504
-0.005951793824861344
0.029973937867235276
0.0366174411060307
0.015264412497344504
-0.04425415830306671
0.03411697483112339
-0.04725099180120836
0.06617631223944061
-0.014156058064635674
0.04115688992770372
0.026781448034462266
0.07653743314085353
-0.002384581747758137
0.048136030495594
0.0002576903231998777
-0.006170916398747728
0.05901440664943142
-0.10374983497609531
-0.08037872254458721
-0.044245258079148996
-0.07214184841449853
0.06023376094118358
-0.06656330365807515
-0.015513852728924409
-0.031450414034108025
-0.025078121617099103
-0.070512591450095
-0.056307154247948105
-0.040989254285668644
-0.032379979902563666
-0.0600260815383035
-0.013266988870712447
0.06345152931614892
0.011085172505469261
0.03221046724745082
-0.0567676564699284
0.018270113496447613
0.0016739517628871787
-0.049256457977395675
0.00992340402112018
0.04297456898415351
-0.007578156393627167
0.124544744802339
0.03114614342253115
0.08629034806807406
-0.05428450514928062
-0.04220296728404746
-0.11422722015351675
0.06649146690376263
0.12575421658476696
-0.14793163301731235
-0.020355790878532086
-0.04794777967804684
-0.041352133208934466
-0.03920306452475531
0.010006524566993018
-0.01019704126277452
-0.004190248391197279
-0.013066693403791872
-0.011312273252452681
0.07462863848789078
0.0026296665398715295
-0.03925361575801811
0.0006746063929781676
-0.06462880201912574
0.003219391198571002
0.06967352633297942
0.03783889813740219
-0.0009968416353717325
-0.05088803641718995
-0.020618024779321655
-0.02348149151491287
-0.005148304532119945
-0.04189848531854934
0.005198582756237757
0.057964291379728375
-0.02186067106310053
-0.05483552075396586
-0.057632785834989486
-0.04373795369411648
0.023221509971419998
0.014120971411701422
0.09598904798848533
-0.013691148296989603
0.031020671120445237
0.025610986027905288
-0.03361960158807497
-0.009973377389224526
0.04214135966838727
0.03391244890278153
-0.023382865232027095
-0.04176840216080638
-0.031737364394611486
-0.05782772096531518
-0.08983643081078638
0.023744530435350922
0.023584065543479582
0.05701835078946052
0.014580707832783766
0.013596143017414278
0.008303448584634178
-0.026896566790895707
0.051597499070377
0.03177565051542899
-0.04007113212866269
0.04933602712257812
0.020830181552742594
0.003065510330983163
0.027931885294067756
-0.03439257743192286
0.0475785340665304
-0.024221835093241037
-0.01754489761252562
-0.04955748180026871
0.044842726774215066
-0.020963641851158104
0.11113571714236192
-0.050364649236992215
-0.07588533371538589
-0.043791999906198364
-0.086304299133523
-0.1344622278968297
-0.01991863987616905
0.008968857650171441
0.05226138114475565
0.4732341046939036
0.9954081330427589
0.5834417600372859
0.1022220913914405
-0.011599603136149756
0.012686886050666372
0.02263565341889345
-0.041927619989973804
0.06621717527303699
-0.03885993293890935
-0.05587271454513512
-0.07506309978078016
0.03593479838536462
-0.06330028246676438
0.030184905460273276
0.006251362091803936
-0.02525538088259189
-0.03618531997819702
0.011715827191019414
0.00285935174453737
0.000961741305979388
0.03785779185796337
0.020294839695236773
-0.08984136519333791
-0.010526359381190516
0.013857662694659531
0.013648717303085388
0.05925055346398728
0.006250224517529832
-0.010018108668082898
0.06383206171219687
0.023741270567509826
-0.04064220469020884
-0.04963535862288003
0.08363970874744739
-0.0006286528710121108
0.0022706751040764924
0.015706668303003997
0.020624186009256928
-0.014055402103262974
0.05599832738325794
-0.010952651340174173
-0.018332336573954788
0.055724515060467744
0.03563961935508241
-0.04062010880140207
-0.05646246214387706
-0.07690271953538573
-0.05091674226993209
-0.0049879509028251615
0.013922023780309933
0.049954021199023924
0.03231723169601583
0.04378917180399521
-0.0730620235263189
0.01689216927613417
-0.09714587404880337
-0.12884783060524432
-0.08684307559424188
0.009015133084757893
0.06878662694422549
-0.00637590739475705
0.04396308620204549
-0.0573099394064373
-0.012330948035767385
0.11619703839071574
0.005709755535315126
-0.08947110907014733
-0.05963511449055783
0.061143236672965985
-0.004454881377083229
-0.03302221488750284
0.09251584703423171
-0.027066273309488603
0.025224455656443774
-0.06594139692793718
0.023917186329203845
-0.03267379421075419
0.0451319050990506
-0.06004784243961861
-0.010992314506695081
-0.035112849417556886
-0.08074377314466727
-0.0321385497581217
-0.005527293933074404
-0.020559928919159216
0.05680401930257576
-0.028448260686420604
0.012048618233013187
0.028849029258265508
0.06639703974178524
0.13310175383127995
-0.013660545988723622
-0.037945049065269285
-0.015047367418554558
-0.07049187272992574
0.04172063172178247
0.020239986769588863
-0.07468203627941891
0.0052418037357240795
0.04137229304123855
-0.06882335826786927
-0.00505332599953245
-0.03736943503253421
0.018403038412044364
0.03313664581298605
-0.027216273807980137
0.07241198179428551
-0.02034905535247168
-0.056672667185892416
-0.04933988321792733
0.07099735622224061
0.01258646220417664
-0.007871989792359408
-0.04129115342448669
-0.09072446660227168
-0.03361381397083016
-0.024180632952077355
-0.09119598095473708
-0.05057893697515423
-0.12439082506946092
0.04349156993662565
0.005490928384626632
-0.01984527283673687
-0.01831667027581922
-0.022478476060991463
0.03911444377313546
0.03134235435491259
-0.05539649536270702
0.07643985314386882
0.03476743972026088
0.02663675996394252
0.003067029499868009
-0.06775689767752587
-0.011463072680144824
-0.07760800818405357
0.007143609197689524
0.013239765040793845
0.02038414870621908
-0.03387416705069639
0.026415757881703833
-0.07016229591351697
-0.003944175019071007
0.0004285640899620449
0.035023937283045044
0.07246252055117695
0.0412909286053396
-0.021692079515211377
0.11361980552207361
-0.013356055207241313
0.07284350579304898
-0.020667435105838836
-0.08056296188854772
-0.0027475430216428176
0.5103579177203877
1.0010062889745792
0.44357776113392955
0.15410663672742547
0.043123774646476855
-0.0008617056589637993
0.06627421006547034
0.00016985874101099228
-0.015197219583123076
-0.03660828355252638
0.04497884129201265
0.03041994922676296
-0.0670730920747877
0.012013678617257061
0.045555435442957815
-0.01617166561230311
0.004539880847161281
-0.04074693020714093
-0.005972567382013103
0.012617306580588834
-0.14327476375993103
-0.0001869125392322487
0.06994844661071994
0.03355202752707992
0.008781148502722012
-0.016245143040192953
-0.01278241793417346
-0.006470149508968511
0.06765124556332353
0.04478734112531074
-0.0315003563508826
-0.04523498038686033
0.020380700657123572
-0.014509462781997147
-0.017417568759862303
0.06368078887560905
0.006511443045987793
-0.04265756695946454
-0.019805313090379334
0.08294467692775892
0.034762174881437846
-0.002457370678363325
-0.03205352924373207
-0.024167831335226195
-0.004235405092650274
0.025108986844285093
-0.021886915558539
0.03378049604928551
0.020526819883644715
0.01483317750049249
-0.05525963408190751
-0.007707312384608729
0.02134252787698414
-0.07676956473601787
-0.06522657580561107
0.013832636357400755
0.08384567241046331
0.028947419593548174
0.0035423272985741516
-0.0323653741843424
-0.055408673373702345
0.028291450864479675
-0.01761414483749883
-0.025434562549188855
0.012632961913494537
0.023382022865841432
-0.023026032776986286
-0.014957467115755652
0.012972680924661565
0.013632449337538552
-0.022725208519411275
-0.011020948058710971
0.03118053594427952
-0.03564217795267831
-0.07022515634261371
0.011166484297218456
-0.011331080032937584
0.021335363712193495
-0.023926843096165225
0.04576765363025207
0.032334536864654734
-0.015756475730877975
-0.03684927466726432
0.010552696645004564
0.030909565082308483
0.023245516630702356
0.07445777474351832
0.0688123298231471
-0.0014620802860933237
0.021162636086772255
-0.013220780453257284
0.08772358316007892
-0.031645774843243095
0.04465150268534898
0.046843131942016086
-0.015331950016955982
-0.09214748701523609
0.02431300372167938
-0.06455353247176988
0.03650583593124225
-0.08209626889840652
-0.009079411757902193
-0.011268426245824146
-0.035279625679370895
0.12483672980544017
0.04649699495162639
0.04172436169865882
-0.009207565540770733
0.05497675951085749
0.036170628358249336
-0.007051316270082052
0.03575551847612434
-0.012660956562301645
0.049471232929636295
0.1585787335963318
0.005700873742732561
-0.00716021879122751
-0.03789729985065064
0.024533339966407414
-0.07130679725996839
0.02063738228400462
-0.051793387153746956
0.09664373715098656
0.06303247795685732
0.04995826462605044
0.05705162446016972
-0.015346109542095527
0.013109110659158447
0.060169057439043196
0.011882966501044262
0.0004911719547311303
0.04415324925259483
0.014743764116480346
-0.07486405382027285
-0.012558796367038253
-0.0961385953349634
-0.047378847029968266
0.020985764494610926
-0.036389137758913996
-0.015997049949891536
-0.03212447787623793
0.01765615207654675
0.013219431221764319
-0.044252949351690676
-0.025455148210921725
-0.09821824778098626
0.024123593489040536
-0.06243369629454365
0.002229568704324757
-0.030230724800322063
-0.03565368864082115
-0.014723318939064652
-0.01994595688310422
-0.01935302422755883
0.03532351138883941
-0.03391308516755499
-0.00990243070210036
0.04842241733906543
0.029110269099442716
0.15596550007952734
0.5345828012033563
0.9966100340616346
0.5072438240707041
0.15139634697816057
-0.015409097627285992
-0.034423161191650495
-0.03820366585183904
0.015935537977479586
0.02361076000266064
-0.04449828478888908
-0.07931425998275106
-0.0029659117061739053
0.0012167051013000215
0.14685044429289898
-0.07757566449055887
0.1118942499771898
-0.038940640767735596
0.06946919838992081
0.016506838114978686
-0.053932520559703316
0.12038183678212167
-0.001338747256912868
0.11231000013979807
0.052137159155784964
0.027244389112801644
0.010430787089563652
-0.021858974184834176
0.009680501657849727
-0.008601058024903524
0.08929116519197743
0.023987914575343425
-0.021799727172786262
0.08644500008296863
0.029900516934378014
-0.009879608954879025
0.0433306847406878
-0.00991569464403964
-0.01608233433348858
0.009781417435776915
0.12622096345406617
-0.02476662287298235
0.005605098013842548
-0.0019551947502380873
0.04864515536288048
-0.006008878801938681
0.06486264370856408
-0.029375751951416725
-0.05486546793700712
-0.017421257828659338
-0.06437289069655343
-0.09630287695994348
-0.01058272619782013
0.08581253490474954
0.033694905235450115
0.004370495670860574
-0.01849956214104045
0.08722095194930019
0.002352579348619634
-0.07547165804984424
-0.0021092869842255814
-0.00887151705850263
-0.1265957798322891
-0.035410460869767034
-0.04836198304604896
0.03724011066970469
0.05867373152873127
-0.02842791235472571
0.020029885387435487
-0.031548920065187794
0.09242683286626169
0.01307862877825105
-0.07746797533317283
0.03241395731299654
-0.05081626281799556
-0.0028093736886084532
-0.026107773770289795
-0.0025105544075477238
-0.08038272464978137
0.014504224983596034
0.01758779064861267
-0.05554318184123222
0.01986321016683626
-0.010251260041914182
0.05240151746919486
-0.11352571453404044
0.013844177475240011
0.008073120791407385
-0.06225498668847859
0.08911321262940337
-0.010456692454536712
0.028637086837315712
-0.01199837312038225
0.06933463724261699
0.020923693993041653
-0.007150565745792027
-0.04407286111493128
-0.02389673230720692
0.044878547390346746
-0.043757976817116594
0.04095287345806434
0.04487356005598328
-0.036208120116985605
0.06431823569435476
0.06638697921652208
-0.08605751032077308
-0.011227092498256923
-0.02676680339700212
0.04669075930227108
0.014191182469600784
-0.05481768110691219
0.060270757983376715
-0.035195198974090916
-0.0006149746954534525
-0.06032218349754568
0.05344830373988496
0.009677042504243722
-0.0216226405812535
0.0606023240627247
-0.014666917600364246
0.005246631419286691
0.04223287979822889
0.05919046057032874
-0.06345744414489154
0.03109969833487397
-0.029339431121949252
-0.027341855111528642
0.11921042394033828
-0.031684309036719156
-0.027262284597160853
-0.07930765492700484
0.006481508688177404
-0.0406376197202448
0.06235518614227738
0.038220150127620256
-0.06279096684967156
0.033730960202468296
-0.08120106500768608
-0.019286152660743173
-0.024894372541295787
-0.039158325560697066
0.011679288724152245
-0.0323709116737397
0.035012009345680994
-0.01565931260759115
-0.07487356285763717
0.06202330980268955
-0.03426186315440437
-0.015446785824680046
0.01803741041913425
0.036494893176453866
0.047529709294526566
0.07407155698497465
-0.05220367755072134
-0.0029629148797764493
0.13916714513068773
0.4607584711112441
0.9309476870101483
0.4443312918892309
0.05086756897791323
-0.021010845504360026
0.05454599302721134
-0.03391732594167204
-0.023919322948748267
-0.013771456298682884
0.08957505918644222
0.08869992685297166
-0.046943710044003634
0.07415416418000044
0.053423364667859546
0.07332153714499605
0.012291119820003601
-0.07976623913402331
0.002601566013323833
0.0432314205412663
0.08804890260716597
-0.02869707166835117
-0.053432115197012825
0.01669826054925521
0.020107153425889354
0.11522876739066981
0.10615542016389788
-0.08163863311397973
0.053122660919053134
-0.008849597549981363
-0.02808403859083865
0.054474705240906085
-0.00341864766418755
-0.05707520215512285
-0.051845510052294486
-0.017431777122493317
-0.18011150359674047
-0.027415712379051816
0.02399018744302111
0.01179726274422134
0.05122328617910622
-0.029305615348050026
0.03926574619664344
0.015770250443633168
-0.02638490609722994
-0.02000648065804296
0.02810877179615666
-0.021129868254750245
0.00843305296383994
0.013716835102839312
-0.048682012009173305
-0.006670522086366981
-0.008689668914283742
0.011442542078856203
-0.02036434471009574
-0.07336295859665093
-0.0325150175131996
0.048635817657586455
-0.005166572372841487
-0.03273309503992412
0.03498851081581198
-0.09946492565381555
0.01276543427167435
0.03123838652537706
0.04749886555662331
-0.03743759307318617
-0.022722591355808362
-0.07577679109392962
0.0665016479893942
-0.036837524217744826
-0.09419514395583747
0.0016259793043390935
-0.02198349861731566
0.055040091196097485
0.014635466583509161
-0.003713015482040657
0.07525769828666878
-0.0914040980757806
0.03231191775373315
0.06776773044737867
0.0290794347324704
0.08247545474511969
-0.01148542630093319
-0.03360579204451003
0.019107618492127026
-0.009798473811223734
0.06233430731231378
0.10065058586862304
0.01940663174577542
0.04462586810157127
-0.013739336330105276
0.078883431751322
0.022145521968086303
