ecg
0.01964126144220808
-0.0109732048665564
-0.001585860654771294
-0.07566966899557415
-0.030237363595497176
0.009318301673273556
-0.0302615217787843
0.056720024005570496
-0.011139216898431684
-0.07035426785884068
0.017277219856475866
0.062406552794233086
0.05805672073629875
0.030704547771505965
-0.03576593332183442
-0.005112827050905271
0.004864352070147408
-0.011899869680864391
-0.07018909908283989
-0.043387049680813444
-0.06126895664129239
-0.017113262277869246
-0.03516151272187408
-0.051228692440542935
-0.05245236285970978
-0.03841841667071333
-0.05089433788573342
0.07216465844177611
-0.0901929643050247
-0.01650428548824226
-0.059260772216116614
0.020395231947746416
0.0020956229478360715
0.07982611897346667
-0.028029220100730723
-0.09761899363690406
0.041696406889794424
-0.04243456647128685
-0.04377300945907691
0.03542481635530749
-0.01344316717218886
-0.10955848510155551
0.06372533752432402
-0.07834013660584144
-0.018808311729253614
-0.06568863678465121
0.10459366460196073
-0.017320659543109723
-0.011037697579885028
0.01999990681746588
0.013302216834156722
0.08217843202305708
0.06138185219442746
0.040826460387960485
-0.07657111654749386
-0.047253789594749455
0.022593711203716782
-0.005015456915848527
-0.012595370978246237
-0.04174096318089511
0.020772976341941033
0.04384783318159921
0.05020929040059078
-0.02671870438355119
0.060570255611635954
0.008059114354184597
-0.0210088353644726
-0.165865943636366
-0.08303760051943697
0.00919164105121747
-0.017685509475999783
0.009886172287151725
0.0018334587959408786
0.0528118875191699
0.02492889917723926
0.08169392707716479
0.029280275608886155
0.05440662700213799
-0.10732775539399973
-0.05027605888548702
-0.018165521992778863
0.014541031653534828
0.11171878623751881
-0.008699935427428748
0.01491415080391091
0.013611163224345541
0.045649686134588835
0.06888570497380135
-0.02638445515402766
0.005123884632963707
-0.10114010442924404
-0.11116109578803524
0.06218953544654929
0.0893888971059665
-0.04007985789672438
0.0027020387347119206
0.018220333890269957
0.05921055849800249
-0.019571728766283283
4.943073269180692e-05
-0.018125983260196172
-0.006195474283627359
0.08537558325998436
0.03950022572917132
-0.04972200087385846
0.022309871875065616
0.04231465254958574
0.005174556215953011
-0.04433229956907134
-0.023831102877691593
-0.05662570033130502
-0.004311289256923324
-0.03232834438923881
-0.010417303325570955
-0.06967711636436474
0.03537648165071597
0.05406375919548237
0.02405281644298867
0.018166188600250356
0.07688296520083843
-0.05676260894853174
-0.02458259880755999
-0.11918834491406179
0.026071722402609583
0.06840768372970132
-0.0005910552336539673
-0.01290293705759387
-0.04974498284315506
0.02529207040921377
0.045719311145709596
-0.033127901282703924
-0.02177943342664236
-0.04504136413676714
0.0532148722042506
0.02648546149019798
0.03169183794987106
-0.06405422189996009
0.008173362730183407
0.0039964482393037
0.048960118801095305
-0.007749431069565986
-0.06361309231575289
-0.0633905128057373
0.07748018423710487
0.027348027527364944
0.03255551496707502
-0.006918713054554281
0.064723564571982
-0.025957559870197485
-0.12499384838919148
-0.003724055422723324
-0.027335097016217797
0.06266734081533985
0.026410100369650448
0.13475439503059738
0.45387673539731577
0.9828481886787651
0.4910023232119419
0.08182901736008993
-0.014653931269592496
0.0005123388242237334
0.11588463709063367
-0.03121683506795528
-0.030087592048333462
0.037355639085151146
-0.05885398755206814
-0.006557384699115822
0.013240648795468234
-0.04231409551306554
-0.08453443668369261
0.048721797681921364
-0.012473865647545468
0.09209889365267028
-0.029403605963796205
-0.011515262208268595
-0.011020165190238946
-0.04657833948230275
-0.008930051936358686
0.01518683015958395
0.07612486009425026
-0.08917140012448006
0.05113470895715342
-0.07371306927732875
0.0039356549124728085
0.08422001315862894
0.02224332178695622
0.0008164786602017648
-0.062033786403558194
-0.008469452261449496
-0.04987184719294832
0.049695807556275784
-0.027935948286284817
-0.008822518124109899
-0.0062079134075897135
0.09960717186472726
-0.04878875579158356
-0.046950642499356425
0.003797670314586923
0.019153388014756266
-0.03006022361448421
-0.030450228779645677
-0.00686652362198527
-0.007673751213850096
0.043358263523013196
0.11467809064150124
-0.031008147524978644
0.02258648400690852
-0.10698488571132965
-0.01780591757144292
0.0034143833136876947
0.12528754129178218
-0.008286276638349145
-0.01948975150327538
-0.022362248832878396
-0.042137106109570846
-0.016894723097920086
-0.015322526122709679
0.004654790653920345
-0.035645994266373854
0.03511259738985263
-0.08050018445276252
-0.07201894143827907
0.03819243058902645
0.00630816382280658
-0.02482597605204502
0.00525050876849786
-0.05746014263633719
-0.010030135033791666
0.009898316254040189
-0.010613001347117176
0.0231582086454393
0.01924701791923221
-0.05201490354292291
-0.0409061973242771
-0.0067270086390601135
-0.032527046557218865
0.11283924982167565
0.002196735959369547
-0.026678671018713237
-0.020778085362691597
0.05642610860902323
-0.053225323142031745
0.015003661902496088
0.057833407881357685
-0.08021541785403012
-0.004783516695350922
0.0657645459173841
-0.053326285639536876
0.044117993338340517
0.038508270460431274
-0.031083525092541878
-0.0267721385700621
0.04522794548147973
-0.04942592881939995
-0.03293505309547464
0.0356035360902717
-0.019512520696073246
-0.023380388781956415
0.01527151912401237
-0.023563649662388303
-0.09106350852666228
-0.11501574331310549
-0.0005165399947620664
0.040486334867446155
-0.07456845008124
-0.02058568217917531
-0.03102769720609704
-0.022076302807965232
0.07782692794031192
-0.04899077963372718
0.0474774151049213
0.06422858020432658
0.058207018347231146
0.0814858885721282
-0.051630728266645526
0.06165447295512597
-0.05690154032933779
0.0878261016303887
0.10884361520698743
-0.04132050030743151
-0.00986266671859809
0.03647227107459305
-0.023647814231503476
0.022019662017918187
-0.03654082259501565
0.09913454077840697
-0.06822091580724864
-0.046494974059398744
-0.007525515889436331
0.06225877840059152
0.0406929797549255
-0.032595090893535836
-0.02007943744824409
-0.009888461061544167
0.051983565432771585
-0.006840468314459492
0.11649928848209784
0.0032982087806463114
0.025370520577007862
-0.054748740446652046
-0.02224402810848646
0.025530623775202734
0.0691652002260068
0.0258604942943105
0.14691959431419377
0.010264526433184373
-0.042404314872922226
0.031274055569641336
-0.14988056392945573
-0.0032222650102522866
0.12808193436607684
0.49572202796870585
0.9434198944379459
0.5163705088658301
0.07893969542801718
-0.025040820196009596
0.012155996233550572
0.006028429210604543
-0.0895327420826356
-0.056103452163316775
-0.006880281879177216
0.061488222181238034
0.04147741877248254
0.020986281943077875
-0.0596834925699413
-0.08520887215248607
0.014478286972752264
-0.044468949198294305
-0.036709697896542715
0.00470915283615032
0.05638212687489389
0.056536672308041824
-0.002292649919106859
-0.09245614465867606
-0.07899219253272857
0.022031824516769764
-0.02917250717837851
0.03922210717533862
-0.051313735717459445
0.08660376043994694
-0.008697712969324933
0.001583352712506928
7.993073336972212e-05
-0.011205570095295603
-0.06772989192506826
-0.00039123624061725826
-0.012434592142505916
0.04652901999232694
-0.03599089533630475
-0.049092635426673185
-0.10798810839740221
-0.044091222482354295
-0.09547437067723005
-0.012548549477877716
-0.0677901422407516
0.009798279085802782
0.019547675699389692
0.02268792094759594
0.08152736077803828
0.013552732789903718
0.04644623395979305
0.07837982435927275
-0.045598032780576205
-0.011349117760931901
-0.001729129459185587
-0.05840370511871852
0.029636667486045643
0.15596230273869024
-0.06195746737432492
0.038552138627508066
-0.03017823832464932
0.022885180012929416
0.03818817225902491
-0.09342592558824594
-0.06978919606034745
0.011847200221877541
0.011916619591433432
-0.05003319300826864
-0.022990561798217218
-0.0023704431674998385
-0.04497699283657932
0.0147836409599616
-0.004080012849936212
0.02700341735323581
-0.005889369523311951
0.07155129370479135
-0.0018449781066272317
-0.06311469491173059
0.010846315727950237
0.0520562923454189
0.022293259389228492
0.019737553865870935
0.02115295113658196
-0.036574977099558884
-0.0015969185886358763
-0.058784311974075236
-0.04876932213986454
0.15590607805305323
0.020977835533969775
-0.009557668797378372
0.08178068184246153
-0.025029949832754375
-0.05091749057913639
-0.12582512109769925
-0.054095808307481764
-0.04732542004117219
-0.044284204723761905
0.043330239994273864
0.04591065531054751
0.031747992514261254
-0.014184232842289963
0.05746693527783056
-0.05269864432347307
-0.0006038706077893742
-0.03661728344189206
-0.0548501846911825
0.006844920602045449
-0.024282551985055294
-0.04302800994266004
0.0202013147599374
-0.0018967061466162824
0.059413963947993836
-0.0036769150591610318
0.023085298462934903
-0.0033759075657286974
-0.03492173573313873
0.037274861471781134
0.02820815752367811
-0.0011201151017274829
0.03593996620608439
-0.022797164398540706
0.018054247493654335
0.057170002884126395
-0.08719319207728692
0.004773090259946966
0.02499357952347481
-0.00885033022178507
0.014652083228356691
0.010881782317020871
0.02701468074062234
-0.0020432060832180055
0.03183623387917012
-0.030192604939964743
-0.006137706400355828
-0.03081638422126448
-0.06968011044153244
-0.01865384338130837
-0.1057440295597732
0.052372501365247286
0.03154473766402631
-0.06506709198786818
0.010034796800220262
0.07723678624313149
0.03467154268254013
0.02564868535568987
-0.0005367035033745243
0.04184818772616792
0.06702299077693107
0.05710343269841727
0.06044228535339968
0.059036244381297454
-0.08169674239803448
0.02818460531377098
0.022946404040980316
-0.01897963569031072
-0.035227092946584514
-0.06539566309749242
0.018899289410365876
0.08851031519793495
0.5236089870564201
0.9517764588631331
0.4506441958271948
0.1316889172519794
-0.027374041831025115
0.08013254934446576
-0.018441648049354095
-0.08924942408208336
-0.07637782824436663
0.06717323051562883
-0.023438175136508935
0.11632316275357871
-0.038040193691297575
0.003398583803238676
0.11658955190896728
0.01939696389265411
-0.06672599968653135
-0.02073075116935922
0.038681988964162084
0.01419243655331454
0.008529352705880025
-0.0028481048052384937
-0.018419671583151033
-0.0072933797195380125
0.04466081349877721
0.0988026569575045
-0.022724548635984613
-0.0007817670102487073
0.008335183248362407
0.007628992450739898
0.08938313376824411
-0.0706971671533903
-0.03623265404265348
-0.05646436123167199
-0.01892663351036865
0.0049590153561688485
-0.07059017763875541
-0.05573564599542863
-0.07933040771792371
0.0698502943771188
-0.06339673987007571
0.0052862822437669335
0.06084707040202806
0.019365710259456347
-0.014111995177187146
-0.00924063856435036
-0.014377044670982615
-0.05983883924251432
-0.0006709421119122228
-0.09491791492791037
0.03349893222924848
-0.05167985190793964
-0.10752713630410518
-0.044485221848717775
0.023350353641575148
-0.003158201260847692
0.025724583970029438
0.015562441967833152
0.0017748174002616196
0.0276483702734612
0.057352881279125495
-0.058513617359957554
-0.031365872549064214
0.0570231822306653
-0.012561045034948638
-0.0658874168614144
-0.013840941301902951
0.022164093148034247
-0.005398052091169435
-0.005933609842412512
0.03965263358906035
0.017584748594835546
-0.01672942896877557
-0.06405756042515588
0.041365740941200824
-0.025786938036479093
-0.02683332043675975
-0.01755230598420329
0.00927217937875886
-0.10426974800959937
0.025275912562994714
-0.0335042762123548
-0.052162650309452434
-0.04106960035587848
0.07881018603411277
0.011303035388627015
0.011433856079556215
0.062193492821078826
0.07697312741918445
-0.029667182812860144
-0.024740915565619595
0.03761643238733426
-0.008290622421309372
-0.04473380072137122
0.09618618168654804
0.03082838952713985
-0.03247065116254489
-0.037832654146911705
0.04391290583486224
-0.059808556501706606
0.0406807075561511
0.005804868886931161
0.050889869926073306
0.019583036639991447
-0.0646584621166263
0.04696216917279439
0.04445000163997284
-0.006612410980762812
0.02641512813129568
0.010217368886008058
-0.09665974012936836
-0.002096388391185077
0.05685950192451167
-0.07075012111183658
0.025806805001319585
0.04964817916515952
-0.05454021590767341
-0.028592691100227698
0.022803829112440884
0.030179517902221877
0.03514512494414072
-0.008853489830812529
-0.013585645998997108
0.06384442856317053
-0.06640081346449185
-0.03514001628575834
-0.017656360867004558
0.005786355400658055
-0.01534013923658166
0.017725612508165737
-0.015428897897697339
0.010924938591302488
0.0355954404888491
-0.028264505649603575
-0.0038379139371990004
0.05519125457180338
-0.01715721151514748
0.04299615165517745
0.0665598683575038
-0.05190021230403852
0.014677950716176015
-0.003282274809895984
-0.031795049298626275
0.04545004302989904
0.017744930245816495
0.033501957150502776
-0.001562155451493073
0.03451612327080773
0.012670553030037663
0.00442461046936903
-0.05816974104301186
-0.03271165387803991
-0.015255710936586606
0.014804963903414799
-0.027580050247617328
0.03269666061938484
0.03679302072654702
0.03336328355019459
0.1308411463432165
0.04629322493830743
0.46245976827014945
1.004398603041379
0.3848158217727245
0.11446330355102209
-0.08875864978890402
-0.08420951561673819
0.01131995232706717
-0.0038286544875946525
-0.039924780191942816
-0.01777151686690406
-0.0014299059081802302
-0.040039067342744206
0.06799107993687814
-0.013295283945043089
0.0018638641136337
-0.014455544838474369
-0.0326192938671312
-0.0024877006042499823
0.01933917933738518
-0.002791030553267324
-0.01909252944949666
0.018682074410252842
-0.0026427405781937405
0.0876101773920995
-0.04640827866223642
0.02480734614280874
0.054314417991274004
-0.013550469703238569
0.037020283330224245
0.012679923641560484
0.10103501474626611
0.02869710543948686
-0.074475673892259
0.029767016864357617
0.017744730101767126
0.057083013647851746
0.05592036708755769
-0.011055407207287324
-0.03284517998729751
0.11578504591332957
0.0265101143625783
0.041493383161510744
-0.008192496375897886
0.018968791276368163
-0.025921167293675586
-0.03533749889304915
-0.000822873118957123
-0.03374845218612544
-0.02583372088432403
0.00580670709309661
-0.021543796938191178
0.08652968532975826
0.0017712661564268054
0.04005038335133518
-0.03618049585426695
0.017299672623900503
-0.04570455508373845
-0.04986464658366531
-0.0353157279775281
-0.07314420783412827
0.07478211326536688
0.005609260928335826
0.07592518947448675
-0.04854548980371366
0.017123834398003353
0.04611625154419837
0.012346959198734951
-0.04807673914480823
-0.062458591253373975
-0.021804142786591346
-0.04290865498108256
0.061654596490298086
-0.01778247655753881
-0.012019784877710273
0.003187437037977837
0.010315995253887572
-0.0019144468569677452
-0.04373762435749903
0.035684109038577466
0.03880211507664629
-0.01905016859375955
0.015724145183808512
-0.04843617603747752
0.09531473333143677
0.0491374049991163
0.03788010254221158
0.010939946244085558
-0.009088390636776902
-0.04740633377656104
-0.020988113988553228
-0.023468805131318136
-0.03226503541067074
0.03338114820796009
-0.0039159920413620155
0.006048238864953083
-0.02929297490638735
-0.023106345705056753
0.001088445831374304
-0.014304140854473447
0.11772559723886303
0.008018441196672561
0.021114072160501193
0.007090704835200862
-0.026536089773988844
-0.10034231206281258
-0.10199866039883315
0.06255933943443595
0.016076893398121815
-0.014079671946161706
0.1607004624480723
0.07995988849396647
-0.06630151258224369
0.0023849741001780336
-0.031297087415477376
0.0617812540555239
0.02999578750987851
0.023305365106867176
0.03222183375885098
-0.00970207510703212
-0.0655171054520937
0.04134330220537406
0.032523872236116115
0.003978899823543813
-0.028046307489166946
-0.0014486542360522912
-0.09418273743996951
0.015687677334307547
0.039035244133930724
-0.010768738203208898
-0.05665212390550827
0.0243657262138479
-0.010054379887883935
-0.02863419855643411
0.0037462335617514998
0.005639615182329926
0.030423857826364722
-0.008985079566389725
-0.006430254692804383
0.05728537151740622
-0.012930713399089994
-0.009118948556467337
-0.02797166185368545
0.026926041316269966
0.045752684370336506
-0.018763731524688583
-0.016843442549262202
0.03681649822080964
-0.021752632374347908
0.036296722994041256
0.026919127267028026
0.0753269758418378
0.10539732072259876
-0.0644861943462354
0.08566028014602346
-0.020479619986869247
-0.0028454489274153797
0.11452065459185864
0.5173966983159654
0.9568336664522922
0.4942203178776858
0.13623631814549864
0.08952109616460674
-0.0035064518467052387
0.006945689574472554
0.027446867399431536
-0.055124279151485045
0.06957272638323529
-0.009516460867935119
0.06989078100053894
-0.08202974486093487
0.04081390704005593
-0.10672697191353653
-0.02971365867745764
-0.02173009123159525
-0.03228448559340349
-0.009736813297709496
0.0010430070942783255
0.02201637204175251
-0.042621158609882255
0.035138432645258365
-0.0003618421801123645
0.02360628523460387
0.05145899035055205
0.08577756430371873
0.006771265346477636
0.03480876389034417
0.05180030445344223
-0.00015899577679324243
0.019112383277464562
-0.012363527279770525
0.0832722181787334
0.001459693490139286
0.032975893209725875
0.020952323299782416
-0.02963017748530222
-0.07144396829326889
-0.005337138146784141
-0.039602658158460494
-0.01826400810460183
0.060250392811189525
0.041348702429824684
0.019238820887695584
-0.008036816593849408
-0.026598856211862993
-0.06624462793845982
0.004607829661879143
0.017942265343937433
-0.017756558996732726
-0.03199168508004864
0.09933357599953367
0.057335196644612854
0.0030573823410418566
-0.007476586401867224
-0.04974224979664196
-0.06582914739885391
0.06773333719340133
0.10144967981136443
0.0033832591138857945
-0.06581160291184726
0.05870060593128813
0.06368103461247653
0.010718429498119346
-0.022287191530255178
-0.06942016884491584
-0.06752186666580372
-0.05817632370209263
-0.05403556380742691
-0.008672067341392703
-0.027424602613201232
0.062223717528069294
0.06489885672300154
-0.04995303592099
-0.03635242675751801
-0.0036410486282020676
-0.05375008039011058
0.07268832161332399
-0.022230971427088606
0.00671937441073564
0.01732564250726953
-0.013313738567916449
-0.007856084783400968
0.03936805520307411
-0.11174054809638619
0.0064196574390373755
0.036215243173575155
-0.11066435191219991
0.08567615721254895
-0.0030068108215120376
-0.034140914825179926
0.08038185103761922
-0.03854880309606459
0.012101951627873581
0.026000071749571165
0.017298309414360516
0.07797461255753725
-0.008253906919677116
-0.09958673148632284
-0.015893185426583693
-0.05918904204204443
-0.04884612594131561
0.07081132567037438
0.04859869143826813
-0.014347948256940735
-0.010745406981264048
0.0030110612446824087
-0.0025739607040572102
-0.01761738030550374
-0.05627890177486405
-0.01701930424627176
-0.05053191129594775
0.018954484351806352
0.0748190132581074
0.027308171728925613
-0.055775765855043714
-0.04063310993833459
-0.029652967286957984
-0.04406607872276272
0.000455081068870612
-0.016881556198701683
-0.03971491268736937
0.04993804851468332
0.09455562112318916
0.0749951752124985
0.008615967814062075
-0.06261187195212112
0.0032400445121211173
-0.04023741309428501
-0.05070913726591306
-0.03195540603741923
-0.010313665532225787
0.07065156278775422
0.011372525974716828
-0.07375434466220626
-0.05714889512308435
0.01762679365228108
-0.04553612549445571
0.04617101862276812
-0.015581731699349281
-0.017571191627171436
-0.07311739656158268
-0.1117093362220712
-0.11981465708704997
-0.10430872487402254
-0.04325489475065572
0.021917473655452244
-0.07576566114300512
-0.05162316196304985
-0.03691962879518345
-0.06754572825473186
0.010428733183496545
0.027740142567758322
0.10981193790262155
0.11361534701367931
0.5068013373829492
1.0318939825913305
0.5103424604442147
0.10670640146057572
-0.02951214661375172
0.033624047736620484
-0.0031863270163091486
-0.00908854580467099
-0.02467078725327921
-0.03536108748367389
0.042246371573209866
0.008540316529957301
-0.044643714544005474
0.0400708369176313
-0.042626940970443866
-0.03367007849876931
-0.02783071751661442
-0.08654624081785336
-0.00357389948609612
0.03133982770723104
-0.008729794023211484
0.02870996894045429
-0.04840751558915771
0.018566004630582885
0.009698408471886513
-0.10436658588627692
-0.02911578191269043
-0.0140076000273375
-0.03795171991416812
-0.06488487328931271
0.03644649644866018
0.005253331864436127
0.03254894028637832
-0.002852283842111898
-0.07128096855649435
-0.05491886553075096
0.06217253343816125
-0.04559408026190684
0.02034548975861226
0.04674496872988826
-0.02260962361117226
0.04634726830170245
-0.032725982463275675
0.007410921460137671
-0.01091136932653855
0.016676452924030916
0.03810773904044274
-0.06165340229186266
-0.0006444303071570122
-0.04081093347409449
0.066306969640246
-0.05578807856515549
0.04116970687295055
-0.09497618787739434
-0.0404544167825197
-0.0396914696591173
-0.0387828161897838
0.0004160602678465939
0.0494610608968041
0.054516186916463795
-0.008825105573408402
-0.030152439467494088
0.08137711876893279
-0.0025147594066114837
0.024585331021981956
0.025185357271460963
-0.04042657620957196
0.06809037000840794
0.02622716056961241
0.037905134284959736
-0.037381124429301686
-0.08657243064569102
-0.04975406854010371
-0.019101392454059382
0.048415566117062825
0.04883314879175432
-0.04128784987355986
-0.04988975248841018
-0.05719608286898906
-0.06643587908367597
-0.01303006889099774
-0.006707736424801183
0.0420301990558945
0.06742638289926109
-0.08584893845800495
-0.018039664643875575
-0.043257065791325905
0.04039903478062487
-0.005287418414154118
0.06957324027087777
0.012550084044479482
-0.024757280115769116
-0.032387317624651205
-0.00230471676154728
0.0164548816324386
-0.02010281483378449
-0.048880585328553876
-0.07647004249684618
-0.05829161506248463
0.018613576330049744
0.0368864725673793
0.03211973545711339
-0.01713505654931194
0.0018027673713631488
-0.012318296511216093
0.020651167497774934
-0.034617243909716315
0.07393485297216686
0.0020321049688296062
0.06440369259287236
-0.027853709230331505
-0.007105856764020928
0.04792376669963936
-0.09272037395817131
0.012800400849148462
-0.09655845023761099
0.029467915461735335
-0.043353348084069376
-0.04279295129141092
0.06557539853133704
0.029948310255631595
0.04587697973144664
-0.09094046903897898
0.050221444700258466
0.017218410930330906
-0.027895006213264423
-0.011729162014633898
0.11405254043281132
-0.1431474307045272
0.027386694597632228
0.024653674336266727
0.043550062276459627
-0.01667867176575678
0.03653890355141972
-0.006953996922157419
0.0192691940722377
-0.011356163760687932
-0.08905166706407369
-0.010737964749884612
0.006933835115187812
0.03410012440199015
0.06492958549797472
-0.004072330342476691
0.010502440833403874
-0.0022443621226765323
-0.01016072413648135
0.014643503924790533
0.06065983252110631
0.044572463584645484
0.06434034326556794
-0.05782154291288099
0.039888443011736996
0.15318220144247233
0.5540482743762694
1.0426613264514566
0.4709652262220603
0.14233934904985765
-0.04523171692808622
-0.012427981934597522
-0.000587940952541127
0.03281879926328073
0.06330287519664074
-0.02203241921929671
-0.07019566786954945
-0.010355364946388727
0.02206408081034849
-0.05072548587385715
0.09441315402531128
0.04137185920846735
0.05167702143728851
0.0235610348258945
-0.016312952151037518
-0.053699361781313175
-0.06796094884897656
0.03334591735671702
-0.050510073626367426
0.052366436364689906
-0.03714559788732249
0.017428298184368998
0.039682508141407204
0.06070964994949712
0.008439646755145799
-0.042618827135472624
0.04017147187451689
-0.002831343341537428
0.0008552994812929866
0.054222195226232894
0.028303832291296294
-0.09836701852303707
-0.061378131675290215
-0.006637391122131022
-0.0015597546229249414
-0.009750712325207465
0.10652895006917923
0.0637122595850299
-0.02282423876265644
-0.005553092812932623
-0.03963237917464513
0.04340402745429829
-0.015586721167802074
-0.03140012146917427
0.011478919090947108
-0.0393710922169793
0.06833185147687017
0.031166435991380387
-0.08162959167508084
0.04593253456525432
0.020532149659555975
0.008833293158157824
-0.08003601936695094
-0.0982048736597613
0.0971502044363359
0.0013920738287628153
-0.01575515546240885
-0.036529469498060824
-0.016932917939386016
0.04726261242078419
0.04676547177280409
0.04036061210785292
-0.06661825841757694
0.015326684913338296
-0.07844682320559236
-0.0185110486985563
-0.026200601141119696
-0.08805521378630471
0.06134173503842875
-0.055687350816344676
0.09900563244271143
-0.13548713974120521
0.10195412857525593
-0.057976892497952716
0.03472177762687119
0.0075072921438374025
0.07582392512470837
-0.04483092006403607
0.07449838577085482
-0.05923041573993953
0.06715205461752949
-0.020240417396130316
-0.012664701888985386
-0.02281175890590777
-0.030967575867964114
0.04540182231544348
0.04016966177629427
0.011310476923856382
-0.007708784805899745
0.06435390245001534
-0.021397596872916546
0.037506528795945425
-0.04487361116824471
-0.04887436698771841
-0.008372787678521959
-0.053108314616231195
0.06909757780577687
-0.039607465190924646
0.04724819189060168
0.012911917471701987
0.05623304310190709
-0.03894234583374326
0.006438490322582597
-0.1014736213291396
0.011061496018322502
0.021439558870331433
0.1331724623390844
-0.010561575265962348
0.017197832540692383
0.022625276447219372
0.018443815237486685
-0.013861244985580763
-0.0050775508680494935
-0.04926297499954765
-0.07810121109925776
-0.0025531859031905357
-0.021988595604017173
0.007865801615486352
0.061066991936702224
-0.037984728646685006
-0.0294359661867155
-0.05686596349588895
0.008926895318275759
-0.022377487212084338
-0.059874094611989295
-0.05888189724909776
0.013741557037704239
0.025468119849355177
-0.04884088766703412
0.053118780228853406
-0.057748497390411546
0.012256964925922757
0.09173324447479604
0.01839179160733232
-0.01740705313778045
0.03429695751569855
-0.03331889515259883
0.03247231330073242
-0.03575570406630795
-0.024907006336901613
-0.039168368497509924
0.031712100605845304
0.0024892449918831852
0.003300703373252212
-0.014184567000807675
-0.014790498520122606
0.031589372918891245
0.07819466978570755
0.061584438079379356
-0.014928354961172303
0.04217045824304247
-0.035032129466511075
-0.08144608408768134
0.002681523666206624
-0.010077616470724977
0.04222949558299108
0.49180241956892096
0.9610896377476733
0.5764913106337954
0.06352766924429809
-0.13458836025279491
0.03716503926145131
0.07854421484790419
0.05720200127786114
0.034361138085109454
0.06727520315860695
-0.06644165381416453
-0.039900328767927457
-0.07582442010695213
0.025455067710285068
0.021846585146840396
0.058009008467506874
-0.037906295590457835
0.057448179894758866
0.017682898444308245
0.012009162710066133
-0.012165219855722935
0.03931473651375941
0.003955092941150861
-0.04103829839378859
0.0312728598719338
0.04008515536257408
0.022107938986065362
-0.005977901335872796
-0.020237868298048488
0.09397935736066376
0.05298538898585693
0.029775882688861624
0.04768610791992613
-0.009298301807627045
0.031700653027564044
-0.08911617066118332
-0.003926737602385794
0.042301671146678106
-0.09524167718713634
0.016157738304752246
-0.0007912797717724815
0.0912614350724901
-0.0983982116018784
0.019500417352789158
0.0509979111844118
0.0038126254233943643
0.02528400403634784
-0.07290918483255145
-0.0599739934118264
0.010567265388992142
-0.06363962245422128
-0.0010763990809411505
0.003528511003467222
-0.09809490577721552
0.008859672230418423
0.0011361670419098725
-0.05759710171734368
0.018029665903546935
-0.06423810729191952
-0.023384881495234364
-0.08035760858073805
-0.02609784434017505
0.030674865287994665
0.03672817819205652
0.06563912546306548
-0.02814503429364818
0.11156161632276063
0.022574624638691504
0.12219831282344094
0.046044427191909924
-0.05103689374291609
0.03550538403545019
0.056104385792495215
-0.06525355808455192
0.01879773216252089
0.03594771834958745
0.07947472902724627
0.16858654065452994
0.011405228964140972
-0.015325304452609016
-0.06815907523865794
-0.024773085203290055
0.08175248387113758
-0.026555990378757867
0.023987172845030248
-0.0925295561017089
0.10240330040238664
-0.005212009573279057
0.04064246782364259
-0.0030158383792496446
-0.022654190502119666
-0.026773052998708937
0.11316266234445403
0.03811868054090228
-0.003117123215383652
-0.04505138683321978
0.07651895692758594
0.0027487216149019774
-0.07133813280007044
-0.03824088171868276
-0.02060991246592456
-0.010072152531615551
-0.035418104593993284
0.01308088156398917
-0.023550566351354642
-0.026163379622485973
-0.08392002328878369
-0.0009591490514898049
-0.06997713745268107
0.06929881371964788
-0.01758299219878005
0.060367954708184214
-0.018601229980206628
-0.03470664235351658
0.05363014761606749
-0.0006115152766877164
-0.054641331337209456
0.051595252484340305
-0.05934171570084873
0.05626505844148261
0.014554399735583418
0.06720208418840348
0.029245765890419953
-0.02452417085419519
-0.05767787727455418
-0.07441532600221601
-0.013073521675037163
-0.03606569344121953
-0.037859691267194046
-0.08046007710792849
0.013038756380436216
-0.05358741715950639
-0.11705016688625836
-0.045881054807010005
0.023408886572577517
-0.0639103322820223
0.15814549708279924
-0.023141823012534226
0.024807227759810965
0.055091979959947725
-0.06809352328368862
-0.022006223578238667
-0.04273041528513171
0.03838778090754697
0.055592328753165776
-0.0067442686565727305
-0.010005731009763305
-0.030695282925426892
0.0009141032860679977
-0.019685839511100103
-0.055632521026778625
-0.04161805211426219
-0.04665675769785642
0.06735692450611144
-0.059954686144038684
0.047300890484020586
0.057969151714427736
0.5146084834408743
1.003265097342532
0.4832629249240547
0.17811494817031742
-0.028771659651760064
-0.030225859160905328
-0.025826768098009562
0.01552330191613771
0.025926526654807592
-0.044619516559801925
-0.042685729919012524
0.0037337540864183804
0.02192570244646546
0.012930594346860686
0.09880076604930721
-0.080955213616266
-0.12215584538057576
-0.0120951400339351
-0.009913260079343145
0.07252635135403178
-0.010898844967145242
-0.0812934525071114
0.1370103621260977
0.004632086313288807
0.04785660564028921
0.09998702450705582
-0.014529836113916833
0.013744793283002772
0.027994352945551273
0.03910909688625847
-0.043655329126036035
0.008283212240887707
-0.023055470332593114
-0.017685523098687442
-0.00988412045974677
0.15340851146995127
-0.09374121539365132
0.025622453784247608
-0.02549912770590499
0.0629104078822315
-0.0037997145669804015
-0.005955217904825949
0.026328902935761334
-0.014540355205030598
-0.05674301501796153
-0.019445231011459153
0.06213332745277531
-0.004823097715500831
-0.040335963835813754
-0.052324119006743434
-0.0025761717523493616
0.005814787696488141
0.02240428974788891
-0.01884818273914042
-0.008005990828926137
0.006013156326739841
-0.09165780562044402
0.08036479112544459
-0.05292091368431676
-0.11590532475645027
0.060262093203839
4.233460593472162e-05
-0.09624161645020518
-0.05362749188510803
0.06992987998692897
-0.05122000598592639
0.06817419072474908
0.056538856887273205
0.0167213941214949
0.10253734534189343
-0.023487090842172823
0.007748502912720438
-0.03580611010758507
-0.10184941277063692
-0.038994840682616654
-0.01559564394156775
-0.0022835008568546
0.000981984350297331
0.02635786227732391
0.007975656730580262
-0.08055846668309914
-0.036786650303291896
0.12798387889157756
0.04598776911308272
0.007583966383887867
0.030732914309836434
-0.043384970874468035
0.005468046624500523
0.012451815008435773
0.017069939663370504
-0.030399431244978622
-0.010637979663698241
0.01939038417236775
-0.020445167060780003
-0.0045556130150558455
0.003971752759550559
0.09720831217540316
-0.06328631719045268
0.005601517763023023
-0.10924220367755516
0.03161774405258535
-0.03506595827367542
0.01841466482380678
0.05379848171376751
0.0863814006287508
-0.021355956781534322
0.0023009138884175044
0.03634845097072247
-0.035687973170267
-0.0836926069837238
-0.0789286471847472
-0.009939143265611565
0.00624480319517989
-0.05674258600133342
0.020878609571134552
-0.03193563254800231
0.01779512875090637
0.07165982160692935
0.002168478345255082
0.0056367123633256225
0.022640222143084088
0.05527013112340704
-0.037791259019616524
-0.010540505608307079
0.01474761709639619
0.024821871417685465
-0.06443049627394047
-0.09799420029825254
-0.031167688428510917
0.047821965321489544
0.01577673939503283
0.002577839179254882
0.034595387870936155
-0.046923255621699377
-0.06672312278721984
0.09310239450378265
-0.002509344623789078
-0.03256579014967247
-0.008002860072641227
-0.0392148915156451
-0.06621349525306067
0.03465116382798313
0.024906081612345102
0.030252917511037838
0.0761711244355818
0.10512804799604286
0.09918952859864003
-0.046457513923925185
-0.06893501425607251
0.053991261699027106
0.011592898837898035
0.08110851051408319
0.005427607061942532
-0.07958458640717424
-0.04545355721849588
-0.036232149712232264
0.11504392243720651
0.5245489092898457
1.0973186782814188
0.4584954272209052
0.14719593598622346
0.028053534139519914
-0.028639416703960044
-0.013182392321952539
0.029096713595728785
0.03540781459645092
-0.015802199202887442
-0.026924893720354705
-0.03265282011184991
0.0009507881699795462
-0.08693332413034788
-0.018316525785723764
0.059581790876689494
0.03304345829252643
0.11852777979813281
-0.0281238279363091
0.00913389959344669
-0.04761063468357241
0.01688563436892592
-0.03659113058057103
-0.045816364235798074
0.09424593229127219
-0.03885544430144562
-0.022736327452836887
0.02351493689834555
0.008364996411891595
0.03110036694009735
-0.003885503156470776
0.03330469887499365
0.03122500231551735
0.004079143157874911
0.006727389649052103
0.060436378011583095
-0.06809857952005467
0.021487611476018482
0.10768667579890362
-0.05481060740056202
0.07696109722497434
-0.05551618307808853
-0.091745939605527
-0.08005277929113663
-0.02289579791692096
-0.12727155154885317
0.05970074308158271
-0.08924757699461716
-0.051774056265265746
-0.07624158487881867
0.027731607740406828
-0.04048635073553547
-0.0205432863680431
0.01870243282575202
-0.026744955172958242
-0.05021790421485267
-0.03573687142434417
0.07194511750441203
-0.03550277610994013
-0.01504182115689417
-0.06840052129711273
0.08353078915548494
0.012992811933846025
-0.005850202502004603
-0.02074949895483835
0.05413449649088388
0.01709725795336963
-0.010686050634660998
0.03824414370335416
0.050844236020504745
0.15113728808686722
0.006095205048598414
-0.08206980319011792
-0.03768339006597013
0.09401987780739147
-0.01419777052249347
-0.03310136929691257
-0.06221849372360512
0.0733723000964518
-0.005197197008284947
-0.04442276616983141
0.014062377486009196
-0.18083874131743005
-0.10792585863383064
-0.013233201461052621
-0.05401556115488529
0.007821278247049644
-0.07369245567762223
-0.043267174774314285
-0.010879482228880896
-0.07973962056185957
0.029480310366287878
0.06341495258377354
-0.0022487455928132706
-0.04646589170685574
0.06752167594060234
0.09158251174279448
0.07314413772155434
0.02398043665947626
0.0038937247618877945
0.059067578738603854
0.02456397294554094
-0.0060335054154687685
-0.03379585202127425
-0.07490718798953099
-0.09579338158469945
-0.09489864775524896
0.025690007534129457
0.06230059577189756
-0.024030126390276838
-0.04592204974386063
-0.062209780782223056
0.04590840177807817
-0.034049106173643276
0.01442459050075764
0.02936106944173343
-0.05971784486925803
0.020274840288850016
0.06370094886344717
0.04177807161249388
-0.059571217628084816
0.10824165789597107
0.01799792778082463
-0.03841207510561871
0.006194149132934295
-0.02030053691529917
0.033272228966585195
-0.04268892463751252
-0.049769063806600455
-0.04874882175624357
-0.01928602502240734
-0.038040278693226806
-0.0609703256999751
0.008066086515659892
-0.05594273481345028
0.023949765189595826
0.008725417285621795
-0.10170459107699564
-0.029293788833360715
0.016976123537837156
0.08213579965857531
0.13985039384617245
-0.036461516450510836
-0.004855956928302498
0.02064153615225744
0.06140975698807081
0.04625639253728355
0.0030946317558090946
-0.017716067717168906
0.047910646119271635
-0.016501375508067587
0.09891968323294925
0.019650479960667364
-0.04571727169662232
0.11732934112384961
0.08687879697146304
0.4357672006363944
0.9433775608792595
0.4454253822711508
0.1010823990206703
0.08402052746836335
0.02103854985428842
-0.0915198703809419
-0.012614272641018524
0.021513798927345024
-0.004864512280572604
-0.0031131195924406427
0.0053065101414565986
-0.04075576377957687
-0.002706609665076213
-0.021623745778025266
-0.07668484267458914
0.0346933335454014
-0.03185560923908593
0.012085311432698517
0.015264439336926476
-0.040164440238819085
-0.08418041953628365
0.023423308542595507
-0.05520149228688878
0.03923609940151079
-0.019925547106517782
0.10311826891925767
-0.055087681240350087
0.08885367097402813
-0.033048878529690205
-0.002318784443273366
0.009778737821425854
-0.03971818236244545
0.01823129818164204
-0.007989190789353598
0.02239189646925091
-0.008893412953529061
0.01968135612964471
0.0038520929941003746
-0.11406724846999024
-0.051014660696146255
0.051925040414488005
0.02866399078781001
0.0071970432325499925
0.010170541561298757
0.06668272840542946
0.002490875499421976
0.04617873322461728
0.0750862812961725
-0.11966690087293011
0.014384162458463683
0.02737082212717495
-0.05480028468351668
0.04988780107754963
0.0024519930225991604
-0.04810080040366177
0.050481754378807545
0.009572897694118154
0.034700569574087035
0.027405544282465718
-0.005485448733724286
-0.07780512457165818
-0.025822341932591825
0.023875977728576494
0.05035064665655899
0.09585589959065773
-0.023096174866273064
0.025051463776056472
0.01957816673219729
-0.032310080644610724
-0.007219432398553021
0.14235924205702383
0.018686697614663354
-0.04139339202946594
0.00013717389724979544
-0.03848687813552609
-0.01153230934702157
-0.0443143242113098
-0.04798627377713123
0.06963416205678183
-0.026948578259567015
0.03537892559367576
-0.028274153729241643
0.005824814271019305
-0.01246574938541876
-0.02264064761831028
-0.06212402026327323
0.01906717458821912
-0.01666284761788493
-0.04087284936563663
-0.030108717915849854
0.023733893744855378
-0.036990125055534756
0.0178831338135455
-0.030490467795337962
-0.01624168548237343
0.008472466881865683
0.009918630400962506
0.04848651855640494
0.0205608333900459
-0.09751950925828695
-0.01765401258792155
0.02565495975612774
-0.011155558135031926
-0.01674602832237327
-0.0014713320659029611
-0.050598668223985226
-0.06568091276580197
0.10459814405195256
0.005283849009619545
-0.033281143529803235
0.06858694391650247
-0.018575484025228024
0.043161400078284576
0.01379583335895028
0.07157500047212281
-0.02908446390766428
0.019604383101618536
0.007487117420419832
-0.0195419606438037
-0.023019429644043993
-0.04104988769416445
0.06547973794137384
0.06070605738550901
0.025347852941108424
-0.059254789093641985
-0.0699618331795081
0.04889316848794387
0.026599788454569492
0.017326950393689974
0.006064256215706737
0.10251397238043053
-0.03139686591527085
0.07212251237967
0.03242545900609082
-0.07103119737617473
-0.015848719673460156
-0.005406044578566624
0.04636036538056959
-0.02619730061507254
0.007275296258418886
-0.040349986855250784
0.01433858654115813
-0.0432463004519818
0.03366701312950247
-0.028551024519013996
0.05639590291818877
-0.010402155108807197
0.09811606262232533
-0.06634811278898488
0.0238153736070055
0.009715972263556333
0.009125300480629745
-0.03786430442399279
0.1699321187347118
0.5032413375893349
1.0747206393805309
0.5793468217876745
0.15218358060560547
0.0036356076841436535
0.005320641581681584
0.01847062455982369
0.0822033166759459
0.026628347595825247
-0.03462739886737331
-0.06098198322151324
-0.008989765732174445
0.07491873791564327
-0.0531056286526404
0.08026628502592725
0.01238439513161926
-0.03199114159218064
-0.030077707353294972
-0.07148417686666227
0.045470714888939404
-0.058699459281007796
0.015406082247688295
-0.007939681351728135
-0.11520277239546724
0.004479580028589575
-0.04402002358586928
0.033027831132638096
0.13244937580858093
0.0013407391110950555
-0.029036742286709924
0.03238475646507281
0.03818340542368592
-0.02617264910188954
-0.019892666754853607
0.03270465682425663
-0.025594625200557677
0.026319287441355345
0.07637565132110076
0.02084712671039339
0.020472402575396075
0.06682163026162455
-0.06021592908434133
-0.10233781355817394
-0.038391565535313116
-0.030158668591995855
-0.018339912888317624
-0.07892787017504682
-0.03662867752050964
0.09293187977625571
0.014530462234566128
-0.002850629640360682
0.020218524944036156
0.020575353987158887
-0.03673907278144566
-0.037787385004542554
0.03232787420577249
-0.051800904822222375
-0.035277042847550975
-0.03726287831582737
0.06313954541671835
0.0005068691765958846
0.0037952755959017566
-0.027232140954255215
0.062483501923401324
-0.07006561708423467
0.025534543763759493
-0.03591825467768577
0.004962679946479892
0.0388601557429258
-0.04304344102337242
0.0315762822143846
0.0002714275412241126
-0.045567087114599523
0.048537598348804924
-0.03977969989284458
-0.05640487674299299
0.07758262294876271
-0.02696739839979817
-0.08226081375197845
0.03614236791038567
0.049669706317783335
0.004211114016792572
-0.008667716579998907
-0.012921768748887622
-0.1036379969844598
0.007816253289572585
0.052265392811402134
-0.03234809863141371
-0.046612958072491516
-0.05322809698999689
-0.05560354304219975
-0.05287512355153781
0.030819584874638296
-0.04311905421291673
-0.06381540482298222
-0.048542340107677724
0.00524280083834381
0.06460097628777542
0.08770352496488878
0.07577415783176561
-0.06284706402547673
0.0924289731529013
0.057351383108009885
0.016784178434128817
-0.07626094710620751
0.06124662649412147
-0.012250814404410556
-0.04433511447921501
0.002409869319411701
0.013113702088061696
-0.03241547624381016
-0.05403328588516509
0.06700448385438783
0.0613214969561765
-0.028930166500603007
0.08945154401674806
0.0012597691756219235
0.022128987281219807
0.013303430107850778
-0.10217201043641311
-0.10516480275886175
-0.04079340766325081
-0.10831004774725879
-0.03634797947761751
-0.012359336735460386
-0.002202500108566068
-0.03593845215363556
-0.0023720153865624577
0.026319979107148207
0.011249617625790881
0.03178557913733764
-0.1053622544676214
0.02166113253844243
0.03868118962819568
-0.08523445315774263
0.003692301417905433
-0.05232173733420884
0.014653247395619863
0.08905284936102453
0.004984716456030498
0.025249211117064897
-0.04352522781233472
0.012694503216306316
-0.013471220350808309
-0.00646080459149171
0.05330273152546514
-0.03229998917333423
0.01303726588930433
0.03174953484209987
0.09056129652763645
0.07888304175968197
-0.02868329076135458
0.015654195704088936
0.11166636995040125
-0.019129671191356012
-0.05065944332118755
-0.09674433410816341
0.03917010035115077
0.06805701050539824
-0.02633848048480509
0.16115588112896687
0.5630699341395601
0.9950605890984798
0.5516768788159642
0.07248941421785957
0.03380912266877679
0.03686091185681553
0.0705673688775817
-0.026979900175903106
0.04514043031040289
-0.0034330657561519847
0.05063238454031243
-0.027290330595168916
-0.06466884789287523
-0.05065306376746828
0.06701873646769378
0.0527391673262215
-0.02704799371990719
-0.019072912175013362
-0.054554283551401656
-0.0825775726996767
-0.060905282045257074
0.0009766439394177208
0.012532154188265263
0.0030067640730774164
-0.05963947037336617
0.010775555835656923
-0.01976133611241136
-0.006542839653575253
0.02383940895345637
0.1094958677292264
-0.04396312812249723
0.08207583459546432
-0.0013377410956803156
0.07748340629604061
0.008067371629598903
-0.015233981735283115
-0.006443468322874656
0.023752109815989925
0.07434237288316047
-0.07243962588406282
0.04713457410827615
0.054685524377118266
-0.004181257239846671
0.011299233360559494
0.04798731276468718
0.022747015021022887
-0.006835191222434796
0.03827052903371577
-0.044313012635371275
0.005118861803828076
-0.019601099993714708
-0.02456913678849661
-0.0163024614053597
-0.08512668731298824
-0.06859613150620639
0.08118400373127328
-0.05677892412221455
0.0032044117100582838
-0.058257305770030535
-0.04407563571468329
-0.07195362954599392
0.07752953481402149
0.049110925972301725
0.05040369377101287
0.003661738016300484
0.05682355902334584
-0.026036134657742873
0.0649947484669288
-0.007313157019078175
-0.08448280145741617
-0.04462338435096735
0.016637472953771614
-0.03344400240949434
-0.04238505467527346
-0.04479640120900216
-0.02799790923665593
0.024075600151960478
-0.05420652912220272
-0.06742774683434556
-0.042660606843230385
-0.015963012957330002
-0.04254341553746955
0.04256986604242677
-0.09451522870431361
-0.08103555603611703
0.002213195502374831
0.034681861858451825
0.04234409446946295
0.14289939850987377
0.10282491148145041
-0.019615070136613403
-0.02495188926767314
0.09474461305638679
0.04788176973581214
-0.004553528692174932
-0.01094920152168239
0.011079626697428506
-0.06101962620031895
-0.048325850312195766
-0.05881243594269247
-0.041131235528379044
0.002373070145703648
0.018131020942578444
-0.06380124831085421
-0.0360455755360432
0.045700042811906524
0.0010802244695060762
-0.030807693922476398
-0.03816621865000866
0.0416302717248776
-0.1235339304128657
0.10682038796884596
-0.019605677009760382
0.0028897338854268436
0.013644099797373625
0.04510689549461817
-0.047767626470608004
0.015930476486066665
-0.034110349996107084
0.02526226634593679
-0.0031846649678628556
-0.016391564657859597
0.08755367947342002
-0.037437605983004905
0.018510588685315826
0.007239194082061819
0.01873323413904308
-0.02379107456608321
-0.04947930839415175
-0.06697455910067446
0.00862051423564252
-0.011936434445417211
0.02871317344274813
0.02069197257735523
0.03877381872823693
-0.03400035282230905
0.025028585026004465
-0.011985175259937217
-0.017382842790724252
-0.002429497833407299
0.11869924231917231
-0.007331763633500645
0.002299114387527949
0.0017600102333546362
-0.006177463786279392
-0.005560995647911986
0.0457673446224737
-0.05092410063251543
0.010281293636329823
-0.0007650285854905788
-0.0076330352645559985
-0.020259589903152665
-0.020826241100753193
0.11212698582060789
0.5108647707891949
1.0215580772297566
0.5538474911473692
0.11546374562178033
0.06447973773438152
-0.01037005540555395
-0.017648962557488428
0.01902418625327979
0.10556876599151746
0.05271941941119841
0.07923507767439904
-0.09602813362987438
0.05876834654607737
0.04601546705936639
-0.09800900226155826
0.012755668231795787
-0.07479636581126077
-0.1202639557649678
0.022986991157682192
-0.0075954959839831145
0.019088689163176943
0.07285223759430154
0.012922159937697315
0.04188766019206364
0.03745862219591719
-0.04323664620760159
0.03428339188350601
-0.02255256809722589
-0.04304198585017
0.05834800156783318
0.035581118775964725
0.005787508142053885
0.11903693064975636
0.0668326505414923
-0.02207600225952487
0.02794777603890565
-0.013148296554649927
0.01348721679541895
-0.044300560210684035
0.0026845235580596344
-0.03748981775251891
-0.02314687995293675
0.032521443864546064
0.053353910363922785
-0.08463062241853754
-0.022087203390563064
0.028459925833533323
0.018142176926373595
0.012916116670231495
-0.03995630948834485
-0.023433777265682645
-0.05301304772311225
0.013127691338367687
0.014889433755813886
0.06390660819872396
0.04767428011486
0.03687315181848163
0.05152873399300421
-0.043674871226842216
0.015583801789376942
-0.048147441309924474
-0.08351675754795813
-0.060335052636081625
0.08841651071084683
-0.0716414212876865
0.16878388589574025
-0.019982368691021463
0.007337039453799584
-0.09659203104835302
0.03978088457502448
-0.032178864479163814
0.0015760389604851533
0.018274285527044902
-0.04775373132689601
0.07301236977187943
-0.014259427368193165
-0.04610029016350184
-0.03162603625774093
0.009463918089750868
0.045038262618927155
-0.017311706223967434
-0.03158001057237158
-0.013157899269961372
-0.07426271767951252
-0.01903349904461675
-0.0199035308630411
0.017489434984225696
-0.05597451459033788
0.05502024811706461
0.08550906304981432
-0.07640542929219746
-0.004842910938008472
-0.05882969000982137
-0.0613703957127491
-0.031164381813106535
0.060164512075323334
0.008459939436036108
0.03345071034044495
-0.000980657945895807
-0.0454049940508386
-0.02280734031295986
0.039016668153306205
-0.051504855690414054
0.12111141384436303
0.012393929294607127
-0.03159770703713848
0.003844972925778702
0.03768570483432973
0.056129838183738345
-0.02645772802241308
-0.05759269746189243
-0.02228118357560726
0.02921237927561603
0.028755182243802135
-0.026990807211775786
-0.015933446974046594
-0.011596222314186342
0.14747165067494147
0.00987118671175731
-0.03712927857864457
0.08105124766489293
0.033513358470773996
-0.035214744144166164
0.0034860164844107023
0.01495205140863829
0.10302337610870488
-0.06403651455100887
0.016599959231826514
-0.013723864430796352
0.006611204030418644
-0.04749297389687835
0.04772334495792133
0.02543124089193162
-0.04304610216614713
0.008737345108991238
0.0012666962516893103
-0.0466156687267732
0.06750162350487522
0.014672670827975635
-0.15086019684092475
0.00445674561277208
0.031116291863938918
-0.082435479834014
-0.04542468809484465
-0.08766980211527914
0.01623834152569459
0.07920457446969016
0.17407477480380326
-0.04679078421319574
-0.020868350853947844
-0.06723370111579649
0.09043340002995638
0.056947089230677886
-0.05979815100332021
0.03679150514237633
0.13185483836465947
0.40617303687966366
1.0811396021709334
0.5294997051736227
0.0774659817263052
0.0034283124093363823
0.03595845429918681
-0.03582716633018672
-0.02800917848684308
0.005291395884856618
-0.03590094626726292
-0.03543275579357318
-0.004415903356116778
-0.02402739432307729
-0.05121982373479281
0.0242050507701675
0.05032674198562103
-0.023922618409040503
0.12583349495161109
0.06745445323555951
0.012935766210518763
-0.07473023834753789
0.1283831486715775
-0.06998971207424101
0.032488306713847996
0.009695214051245078
0.016783819708018757
0.011549941000976446
-0.11685970262770373
0.04667850961787581
-0.08310996956399075
0.023349404075116
-0.03779655839718216
0.14917913099539978
-0.029347781725438355
-0.06264432610648016
0.08071003128292684
0.017389957179591683
-0.05833696023185453
-0.0760785687151811
0.05346966571131461
-0.06459884587691465
0.020365878551242587
-0.006770651883047979
-0.03502612791636084
-0.056478561113230755
0.06979958242594886
-0.013639343211642048
0.08724537745733105
-0.011737230116961548
-0.016987752951177788
-0.08886982496722885
0.038600202610189996
-0.044807267442008185
0.006839940339617894
-7.303170569747115e-05
0.07725966926282324
-0.00873567106542733
-0.016245850314018137
0.0014368770032044485
0.0737814268666163
-0.05212535715260304
0.12150947631712189
0.0810776727028823
-0.03937789208881831
-0.023233255272493616
0.06438622374772257
0.04900571205822694
0.03159829869971087
-0.010568339762933369
0.0329359721982538
-0.02741020021561896
-0.011540330568600585
0.032909521806970564
0.09091811221862843
0.06394945348720898
-0.023099566916634277
0.0814601779130879
-0.11388983959078083
0.04466396909076373
0.04181769040358161
0.08061317523121259
-0.01732839059616824
-0.07435888602693036
0.07975117143643978
0.06675808188058474
0.07173164252816809
0.02516512878940226
0.05716457813964148
0.1126155870844602
-0.0033016381077337325
-0.0623374769630889
-0.12683564448939547
0.06390581683252838
0.03673042498820022
-0.005143300375285349
-0.02860745565814113
0.03152818261580928
0.0638770611545414
-0.04424202354679934
-0.0078589794860547
0.08777692582431325
0.10752893715655198
-0.02308560698923183
-0.02044121165694146
-0.07873443515363689
-0.005267412569179267
0.041441335380159844
-0.038158467184188104
-0.02587704580378546
0.0753016821183056
-0.08751741908992645
-0.03328287642269993
-0.04628853863081502
0.03209122608188615
-0.05790556375731351
-0.0056894479140534885
0.006789365339776113
-0.002698859665927042
-0.07073688105136211
0.06959236776230665
-0.007960928979236871
0.07898175181232076
-0.025310376355271776
0.038897080295373254
0.02728103695752029
0.041730399637514105
-0.03262268989187936
-0.060728124952108414
-0.0733383993699758
-0.04748570676591308
0.007880591050930343
0.061804085515700914
-0.023801570300106958
0.018124040782249
-0.02982637644167259
0.06842535820845719
0.01598882446016311
-0.02205561032080646
-0.09716326161913463
-0.03495731382359463
-0.05362202941867314
-0.003229396146555462
0.022765801760596588
-0.0007619216390850906
-0.03593668511669322
0.01774627930242801
0.04616066677064227
0.04086323559895752
-0.0011270418117531442
-0.030119961942259934
-0.00022139721975618885
0.03944955226772627
-0.010169470918862611
0.012909752700265419
-0.04314067651065792
0.09410825873668076
-0.0049845281943939855
-0.04139588348798294
0.0738731262415586
0.014831562477906133
0.12126138274265587
0.5519901167118271
0.9936776383352625
0.39410031532082407
0.1204725642383605
-0.01142862810476928
-0.05524005473113774
0.008966031465722776
-0.04793652716409709
-0.02203160825524989
0.056273386782936134
-0.04431191871355304
-0.040491527483940304
0.009690168282705119
-0.025943453371110405
0.027199535860262938
-0.026364382904590884
0.045530123043619204
0.046744919601626585
-0.025054698246217273
0.016571975059144244
-0.02205659176463787
-0.039825654741394254
-0.118534563069924
0.08965279224981756
0.009819125581399982
0.016455063891990012
-0.002773557214530545
-0.022978266212743497
0.0353628463090995
-0.02111674247909641
0.024514975159896635
0.08380605679127667
-0.08968146512009
-0.01439440845726482
-0.021026072728341096
-0.03696114718025396
-0.05303437515332964
-0.0418038401136787
-0.10591251154227535
-0.03840037438065657
0.09528351194033757
0.04963678824368254
-0.08088881665400716
0.03667239733484436
-0.0009042689435180418
-0.04272127197720245
0.007889042065345145
-0.06233930009400196
-0.010177795581929498
-0.09090949130254565
-0.04966500673501497
-0.10133116628016743
0.01247736079156285
-0.034389139715319206
0.036113212925334426
-0.025318603469011238
-0.04149513183689651
-0.049213754609964376
0.010847615708931823
-0.02384933863259464
-0.0011396589855518083
0.05921270029751363
-0.011167845988247356
-0.006967876387440646
-0.08407193265953013
0.014652202686489847
0.10516513556204204
-0.039947838846195356
-0.031167123211339798
0.10841618185396228
0.012051710924944462
-0.009162958467604225
-0.011310751854446984
-0.040871683601409386
0.00021677291190167435
0.0738675623758883
0.043169408088007725
-0.030728417198001002
0.007708461302889703
0.07198815048921346
0.04349068233904472
-0.026249871396351612
-0.015929257051570167
0.006361021401148823
0.002079304461695758
0.004832665766000398
-0.04628087616223858
0.031226641462160577
0.06052569775894047
0.009330535901142316
-0.037645826440812956
0.023240366318253408
-0.02617665532046536
-0.012088233714244468
-0.018706983785597167
-0.04576055876931541
0.02835956670919719
-0.009820089174940845
0.019968275502696683
-0.01476619306233811
-0.0027984150414073067
0.056110264784342105
0.02583041966460477
0.04937136295669145
-0.022222704521894215
-0.02343531077837011
0.03688323692418013
-0.038064315904088736
-0.04511873122270633
-0.0077535432122238625
-0.013775002932988037
0.05327935359006734
-0.02949095579592999
-0.06591393100016521
0.11430869032564157
0.03868174540168041
-0.01112259182417206
0.00012274561874852272
0.04373612739457633
0.09019180292572235
0.005494160430562327
-0.033622163105732
0.057216425274263544
-0.10216265000251737
0.011167137717392375
-0.009910896784406677
0.019638257935966776
0.05574343125047479
-0.03291120615008969
-0.041382374315090925
-0.027485825572231216
-0.020131171596173666
0.05053282071582732
-0.007210382120945336
0.042949785019414655
-0.026152315421926437
-0.012217259615653009
-0.011905847946306973
-0.05056569060407129
0.006708558002728887
0.01691998908269773
-0.11093340281297788
-0.07815328636387825
0.012080298632198772
0.003202692578288386
0.03109315725394712
0.07117249392957636
-0.039850209140764405
-0.07546713199115383
0.04611020236049722
-0.07977887437149637
0.06235901983059902
0.11369508340220166
0.4573247984939114
1.0249945820080053
0.4522039172744692
0.10853603539488346
-0.16168942935513586
-0.003818499202911673
-0.05477387176297621
0.007066800170445616
0.0024054037593581844
-0.03248970446949058
-0.032869756438198276
-0.04214685486421811
0.060959387024029865
0.03926577225044607
-0.003982575805291833
-0.018629791027339294
-0.013533308398463246
-0.025747234458170162
0.037305514944738286
0.0005292677490227316
0.024735870772925966
-0.03085855060960892
0.015242598659323637
-0.04915039552996065
0.038824459097849366
0.040644772165129406
-0.11039721394352692
-0.010500522766530095
-0.0037150276534628443
-0.005005124048504778
-0.0402550752944418
0.019993789826619424
-0.011760008632056328
-0.019939895625000495
-0.014264465348227862
-0.07983096524976566
0.02428981028920454
-0.011776937663482806
-0.050462513427437884
0.00265192508043543
-0.009052159597574645
0.08606232515057775
0.022753141454111225
-0.03101341510810266
-0.11030293527157511
0.02971642053341425
-0.04598723419817553
-0.011164218846362482
0.0101695760802486
0.011221868424251876
-0.08023523073843476
-0.08011299137142434
-0.03364565827779
-0.04370117765160855
-0.0022344049896283118
-0.039225254080444506
-0.10058187191137465
0.007684701687819833
-0.05314335598975722
0.004266724799219944
-0.01895615414346347
-0.04424958100934951
-0.03876414103864867
0.012473250130476472
0.002518125367405413
0.04855474387066791
-0.03193441292690164
-0.045994471401363646
0.042649270990129204
-0.004503060917854843
-0.0280266990591522
-0.045839671917984603
0.11965331357479908
0.05978359874524917
0.09667650282847282
0.028691516345173945
-0.04844545779166215
-0.057990619757530816
-0.023894936569295436
-0.05920111035115935
-0.04929508864260111
-0.01721637637035155
-0.011802073667975876
0.03424583563338929
0.014623456967935565
-0.0522378571859389
-0.0031213347293236513
-0.038996379376686326
0.010734464829594314
0.007829969169806446
0.01102929581862045
0.084839114918142
0.03209197686036927
-0.007012186216210538
-0.0950451615183039
0.001514811657848568
0.07811575282675269
-0.010706046364803185
0.0497488494214836
-0.016549616299702516
-0.062145539774326346
0.031278563259600725
-0.03259385946756175
0.05257713668471459
0.047609221604316715
0.09298731349845765
-0.04336003586270345
-0.006194622750784561
-0.010363757006233498
0.01631867832163654
-0.024064682777206164
-0.046669621782822406
0.010536269901916495
-0.006568880961678621
0.04723593250977079
-0.0939347611088505
0.1121496318715946
0.08267052856811226
-0.009847983143564172
-0.004107829756606064
0.07405681192220791
-0.0011189908741722928
0.0637302189693728
-0.04626516230497124
0.17848589422548325
0.03171327507992377
0.03786990714888746
-0.01186347973772612
-0.00831717852038211
-0.06011555267868304
-0.043753041124798796
-0.014553697633480071
-0.0036548806858900332
0.02625604618205726
0.06759746470454785
0.04764233084317753
0.0008356871221548976
0.03362026838932377
-0.027549160772846595
0.046829054140340595
-0.008883165470041253
-0.038298379984105034
0.004441563177424745
0.007581654895826759
0.021579806288583903
0.016027345657315364
0.011406008112540247
-0.03400132162362799
-0.02387534722272658
-0.013918474226887837
-0.002323586031834183
0.0014172695989495775
0.03932651564993728
-0.07163898179288042
0.04492723925634892
-0.012448323109066788
0.0070517672719312766
0.1304224353104379
0.5745417025634211
0.9419206249508965
0.47723164199705936
0.09100280332460498
-0.04037313286505136
-1.707259851529381e-05
0.046710723546075666
-0.09488863892688762
0.005899236708656639
-0.028510833598053415
0.08004900627983881
-0.05748893294819096
0.06146068313611283
0.04255089699841956
-0.02144670366820881
-0.05856835370469533
-0.011756821168419924
0.053384549970377476
-0.0381628855811516
0.04777920938230093
-0.0021798235656312996
-0.09416989241771774
0.04980094112335728
0.05395875270342937
-0.020314495301003502
0.019024113252171366
0.018494388324443983
-0.0994153546548705
-0.02444936674688475
0.15130894433031492
-0.02154794417958049
0.0028315510764770537
0.028636090244381896
0.008214323639859144
-0.052208849500376735
-0.036162080927894004
0.03946159865911885
0.02316482806809129
-0.008452602026872192
-0.0027953106987293804
0.04321667057611339
-0.06459026559641501
0.016631076893246464
-0.028289671600859958
-0.02020536192662368
0.001849555234737385
0.005042434760856601
-0.008112362284159543
-0.023538195501384182
-0.02007478335484784
0.11596105020145853
0.017021236058756568
0.10254395632381873
0.028852654922557636
-0.06035905639110665
-0.08400428327525493
-0.03983531451942798
0.0029050042974763965
0.0712916353618081
-0.02831453909808091
0.023292178262483525
0.062393106645427326
0.06968241271080881
0.0072340490905852435
-0.061994946088169314
0.034543265695370626
-0.004734114339572738
-0.04346603635742193
-0.022777340024839846
0.08163729326635823
-0.05030668821742212
-0.03936578070946818
0.06959095615831672
-0.014605083068581519
-0.12242131005917323
-0.016825366658072684
-0.07799843041561509
-0.0815889337278739
0.0817493964315944
-0.03428444473522848
-0.014071319632444826
0.1046056694948256
-0.06232399132446327
-0.005816586974435007
-0.041503931337288184
0.07249234037873145
0.10085640445060778
-0.0006184679987702569
-0.07267295669612067
0.03496256251516256
0.047865860685663605
-0.018992650062823968
-0.04459797056136297
-0.03140772720836354
0.03647023536279985
0.03144074065710129
0.03492983700294782
0.04095169447891686
0.10607185589674217
-0.03187342894444481
-0.007176639663330946
-0.018322232930524266
0.0521974282435411
0.014053333604718214
0.05399655066219236
-0.016094385433638333
0.036613287928801246
-0.06337976885898046
-0.020987633711058436
0.01844656495738344
-0.0012892930106649996
0.08400266547962842
-0.06267617723214873
0.029700526767376945
-0.034975833949394915
-0.05932668152625917
0.018711788908181145
0.024740027355363674
-0.061923970362277425
0.07189534753969377
0.05729554886216353
0.10679667638853457
0.05076902495142497
-0.0472800032521942
-0.02734082495226421
0.004132780020764027
-0.009422895497864233
0.01633503920738447
-0.09592960478518317
0.04928411337377142
0.0035494872086774287
-0.07633567422656208
-0.02883742102786155
-0.021967319453514628
-0.005044485933651057
0.011789101201641354
-0.02864850092406058
-0.012406943085257955
-0.03658097322268305
-0.08516174325476096
-0.06320477279848126
-0.02898324961250758
0.023391281097393933
0.0026216740811703526
-0.10505006240952906
0.045209782331497916
0.020557880703526897
-0.06098262486812095
0.03340518390691029
-0.03257483996410976
-0.044980863953840856
0.037870032586568646
0.009110243231026683
0.0510540667644531
-0.017883665952682603
0.009366092684252005
0.01991125933637886
0.03914998002214953
0.1413994540015227
0.4793921331769115
1.0244837703981504
0.5414360272389982
0.12171128642246894
-0.020764700619616577
0.13202397243040653
0.042735272734949675
-0.00615567496501728
0.05990655109666965
-0.025793762952400573
-0.02003849021926208
0.02917347565410385
-0.03057719435538202
0.01180357087153013
-0.10053235662872402
0.007707872956258354
-0.004139378472059267
-0.00887138686511312
-0.008711022009689465
-0.04820689289877378
0.06793129856150225
0.0391289474282365
-0.018282600620052016
-0.033911257316299
-0.005257456001657216
0.046498916061723336
0.019014838387993296
-0.045717847495323226
-0.023927630810931036
-0.024798729169146216
-0.05899302885649911
0.06501783106096841
-0.004018042643272959
-0.025986911288681504
-0.07820580064832355
0.057717639196199336
0.05172646750440253
0.022654533958397796
-0.014812903705543884
-0.011192340883246651
-0.01516744892103335
0.09980066896746566
0.036675338445743166
-0.06758489946414442
-0.0870331394173268
0.019017212083609094
-0.05581378952122478
-0.014230983937646763
-0.011736143990759349
-0.06545489656517989
0.003619685327434773
-0.01930456155391058
-0.014202953267923863
0.015046294769794905
-0.013713306814294024
0.03394150251991075
0.019875811777373954
-0.002309641479621638
0.12306850920392319
0.009646965836868021
0.054503340232087895
-0.12003170962602105
-0.06144975387895906
0.011440842831911706
-0.09064068049854748
0.068129857288231
-0.016223754970744582
-0.051736545310916995
0.02635055335095811
-0.02359204778251495
0.043865298864007786
-0.017138038626937996
0.036322476053728715
-0.06508621294730389
-0.0016639320299632395
-0.0779055039477261
0.037894098036417016
-0.002144168619837556
-0.0771754638947832
-0.049909924205229966
-0.15103978382496813
0.03824521972104319
-0.04100965238021509
0.09708145609224067
-0.019480262424692037
0.017096619082489852
-0.012670673582047199
0.10835289470432657
0.07917823528234635
0.024791945195213404
0.06445743474597755
-0.010883607404105974
0.05002671241559902
-0.07522464727614557
-0.040963115691794304
-0.05006923887544482
0.026804583479667955
-0.0524649386337751
-0.03237496555242874
-0.010563988539645422
-0.033862039668172965
-0.019881066062271465
0.008525180180417423
0.013412000240900251
0.07204967458025076
0.03168398309252115
-0.059023427268222566
0.02971264898601683
0.023735855119082317
0.03489292421306219
-0.029943106074287906
-0.010021823075045512
0.005719922970135016
-0.05850666879031056
-0.02931947247334231
0.04828174497978664
-0.08807904601137063
-0.053903753415898585
-0.07251272539429565
-0.053382222122521056
-0.04947284718271766
0.00940452750752158
-0.045949888768685034
-0.07105904727151906
0.06634998696951173
0.0029132789097362694
0.08005442491225917
-0.05744784984503024
-0.04355982127366642
0.06026968846383873
-0.01790888655606811
-0.09440590737104582
0.0034501380553895707
0.02828685164114683
0.027283470053351418
-0.053020887074735304
0.001053657875576885
-0.006790399044402261
0.028790189347641555
-0.07473670737218642
-0.12160631038276373
0.02808430503833434
0.06986729070292035
-0.029629554642717507
0.06773112317786638
0.09873938293596418
-0.013521798804384528
-0.007777740752650367
-0.07787939350144299
0.026876708387275336
0.005468365899612451
0.010286068362047705
0.01098290133564881
-0.03145838857184069
0.15472262259196012
0.49984248656626085
1.1023797732478804
0.4736040597025601
0.05794338511425953
-0.05145795477695664
0.038378905644902934
-0.01676010449982418
0.021914729869141163
-0.00987752732285958
-0.054156290974783354
-0.03915315344448945
-0.022412717816402285
0.024617978929277855
-0.007505276775571178
-0.00571244557837254
0.038227689281699784
-0.02921299399470865
-0.06453934765463165
0.0006799277956252409
-0.035922197026118916
-0.05349346598776028
-0.10926494140758672
0.022592372699570915
0.012878575919027245
-0.033111688585418124
0.15621659639911056
0.040925687785290155
-0.01629387965031774
0.07753144986177349
0.02337341683288796
-0.007478368953958321
0.031994278332680696
0.03801940592054301
0.03398217004204701
-0.04321122362871321
-0.03439386231576748
-0.05274467827514906
0.01392652730546505
0.019651555232211543
-0.0025926577068265746
0.006837447647600379
0.10709253182479027
-0.02502143595855696
0.08274891756048518
-0.06657466020500448
0.003148366173265345
0.007620811304411098
-0.041853839571697186
-0.08512972233103983
0.04442828540557021
0.014909801247115257
-0.006734541005866597
-0.07097357818276753
-0.09536509632896327
-0.06764330000968576
-0.008635050796459601
0.006577851677215964
0.05416002178488608
0.06754544267504757
-0.09286339401445465
-0.032430880462779525
-0.02125673325644534
-0.05302856891767324
0.0751360360052573
-0.00346383430315342
-0.021036698608809606
-0.008997567063088619
-0.03174928094320125
-0.01724990333275914
0.014727923451288778
-0.020926077618855406
0.011324474309700953
0.0038739487607322405
-0.036202243981115885
0.0028607097297289157
-0.04966821967421249
0.015132716828839272
-0.04208625867811492
0.10240777377161975
0.04581571713930806
0.05284378511583174
-0.02041821692751336
-0.10396382617446097
0.09770103645597648
-0.03181965813002321
-0.007387429776925364
-0.026802053971779774
-0.04328772958880908
-0.018357479050695968
-0.04918637044443471
0.026729095669396564
-0.017331824456793515
0.006387063940962873
-0.050669711876341506
-0.02011385784347196
-0.005798937877330767
-0.02861020687101954
0.06057730796571949
-0.09120833270011149
-0.05290466545643038
-0.059895529829350064
0.027167292006960636
0.0886735747330501
-0.07990610525928336
0.0002477288279748699
0.029937148752014003
0.08138481347892389
-0.08022551797485822
-0.08197484110382014
0.051915624394702244
0.03197191897930173
-0.041556565682278127
-0.05687717484576567
-0.04867064655004987
-0.00347001912362758
-0.045212338587475885
0.0018436876350980199
0.007467039853106085
-0.004332538740656851
-0.025522586896622568
0.05029103492919286
-0.06355875326281572
-0.0442020320794952
-0.004427958228055724
0.001490745912456302
0.03517647418455643
-0.06819853161629408
0.041783953875395935
-0.05060230615467816
0.009010928281996086
0.015171276613080244
0.025127978657637298
0.06833347943763848
-0.11409072721633245
0.02402220575182443
-0.015434055755245951
-0.06193983567477124
0.04014972788612215
0.0015769813065409828
-0.1000852461316461
-0.0692795922379706
0.011709148890501522
0.0616014695293217
0.008246011701314674
-0.02682471232862261
-0.029024171017279044
0.003688604024285606
0.018485160147314366
-0.014652106847235356
-0.020157181013229806
0.036142776125096164
-0.07476624142159984
-0.07047704451307016
0.06761275265023604
-0.005006658873743852
0.0019448008491262628
-0.08928326438434703
0.05792377571147991
0.519827522166343
1.0331232234152967
0.40396909428860134
0.17080464372205326
-0.06861027489475181
0.058217934476616745
0.03864417463595683
-0.0034133459275412074
-0.0032891281536271745
0.10598536744654702
-0.06957854943872653
-0.03135364624409114
-0.0011615513016987051
0.02281249704421588
0.0014059413451388873
-0.00896595151353406
0.033965530589348016
0.04973059434820054
-0.08284371010324139
0.08492080866895202
0.031498609770958495
-0.05136916599684448
0.03405486372693849
-0.01993323601789604
0.005876557033761935
-0.019782789389725382
0.11448217688581996
-0.053352652764127234
-0.0007349736640695224
0.00934824928174478
4.316669128998714e-05
-0.04455354835114833
-0.024922462339387285
0.037521188385136975
-0.036877942524944335
-0.0014504894175310773
0.0392524414718707
0.03581879862671758
0.059510045356372936
0.08681824562918186
0.07006252102951295
0.0004972802721763344
0.05565721195732071
-0.00754557766742094
0.04778692090441073
0.016691095402383255
-0.029112623092498763
0.033026996280580194
-0.03747725592206965
0.022080829487267487
0.01023829141711165
-0.021651475143822135
-0.08060948301047044
-0.07510399143469286
0.05615623031182798
0.08938317585890676
-0.015000105868116592
-0.027209023347502376
-0.018280152367881802
0.07532306918718588
0.07490308311957398
-0.031850462397777446
-0.03206750903304761
0.06391228989714151
0.0404010053053704
0.0939741701189933
0.03273115042922549
0.02821279390031455
0.03355148394557344
0.0003645465051798112
0.01307211936506815
-0.048272841195159656
0.02623641732914557
0.043721243441864906
0.04617489486198289
-0.00853549541413155
-0.009758959359635111
0.02513816339840467
-0.00014603375574395302
-0.03135018786894311
-0.05427600934167163
-0.0894335995099633
0.0009661155197365362
0.007512865448658987
-0.004984901423973059
0.03290171972377872
-0.04038659716480094
-0.06765300752223256
-0.010782927014681564
-0.017586188014793197
0.0215227246947558
-0.02680935060199989
0.018892264361114214
0.08436805174350233
-0.02959047817431017
0.028508392883639034
-0.089230542003986
-0.018774548351043224
0.00031103156023490146
-0.004445656995470363
-0.018866198697771605
0.03885499768964467
-0.00890865177230641
-0.003470352886306589
0.005630342914300487
-0.07663762522304259
0.007234909349598861
-0.041823195165966894
-0.07957524619758545
-0.09072206419069567
0.023521665165241568
-0.02717362098869527
-0.04354018984929356
0.02018926603996757
0.05908865139857799
-0.015970737584193234
-0.01713492850958986
0.029185418081641976
-0.055548172857381055
0.05523519290565281
0.001221716359793825
-0.027325635666503086
-0.027220749430106213
-0.021850842671225376
-0.08403738107610402
-0.07305727825628128
0.11761288305126821
-0.032683690336604176
0.052481280007344415
-0.07637529538116113
0.029165222780138823
0.1281582295432442
-0.006676789717002323
-0.031246011339142385
0.005302910027893218
0.011791455465173524
-0.13076207267966072
0.0030099754771247982
0.03756997129082734
-0.013295426572648048
0.0033671944109485495
-0.11101367569027364
0.022537285682932732
0.02311122389355001
-0.05687112763700314
-0.005948573014155247
0.11653238626153534
0.0266323095379732
0.056098116925467005
0.0406977494269625
-0.06114411458552981
-0.11827801500430885
-0.03595750288747628
0.022141387303883625
0.05307455227269151
0.015550151150394601
0.1474290366015581
0.4693463264990833
0.9911882173325718
0.5373240997777095
0.03465274447181242
0.03074931730226719
0.03518582793608526
0.05651536190060646
0.007743160646239257
0.0217638075400036
0.046418025333515016
0.035837600400469884
-0.09322247655605559
0.012477997277059422
-0.0050450442630469074
0.05925327194992233
-0.08032650442310477
0.021789216889387657
0.06580512212336376
-0.02382535414211827
-0.022358797808514533
-0.05162180119951441
0.06154699657500177
0.0406173115044528
0.02391859942891656
0.0034760224521129127
-0.039696639494290975
-0.003717795026889047
-0.0436496360332546
0.07767933203960553
-0.04313599527662343
0.02841966869690564
-0.03254236244421242
-0.04121856394755352
-0.025389381532109536
0.04051890177901654
-0.02582572627214665
0.06566289786817647
0.08099118200642985
0.015465596517394473
0.06191257341174749
0.024177805158087613
0.035748350945117
-0.01111213183160456
-0.019297592538049035
0.10112677657791498
0.04665377125052819
0.011852166293995423
-0.02907044221642356
-0.028320189545049806
-0.002309029652025673
0.0914214959262819
-0.03311800976322522
0.0476652165924146
-0.023497320561765754
0.004026099553731953
-0.06270530996179209
-0.057240479866510624
0.03380519071887587
0.03365414147365441
0.0036786109482754266
-0.087574996076731
0.08975633330490883
-0.005485623123085877
-0.0076741246382587185
-0.10334019915611654
0.046754331463048526
-0.03639534352870058
0.07075817704318348
-0.0011894978941864615
-0.048891260508298104
0.02481253825664893
-0.04067549692564382
-0.050251472467047247
0.008265680921332376
-0.005413453559853087
-0.005551848456731506
0.054066970210525006
-0.0013537625219678783
-0.031012189120244584
0.020456892925666922
-0.06672029712545914
0.05638845824695751
0.054415551775307616
0.006762625442255823
-0.04088892962457308
-0.06694439528029487
0.06624173770552526
0.05060221440678134
-0.04687650695362046
0.050670057709630914
-0.04694081884883806
-0.03942012796827943
-0.050571537553296034
-0.11215678869928875
0.02821323402091526
0.020301406362450106
-0.008481040783119943
0.014082448676849255
0.0059748320868923425
0.00464315168081368
-0.024204959546977434
0.010277556490934543
0.0016920856060927251
-0.010849021592799709
0.06381825823765695
-0.015710710813707934
-0.05118363837854073
0.0670915127144981
0.05901613710969666
-0.04813695491667803
-0.019435735859257335
-0.06922855570383978
-0.058960999630180234
0.047165203601003125
0.03465120260452927
0.08301592183427364
0.06588352676713828
-0.011692610346428739
0.05888943474175615
0.012977640071694994
-0.05093643829025932
0.07919348100460918
0.02569158612691157
-0.10944744426345021
-0.03175479175589109
0.011227912402127149
-0.0963934776714884
-0.02150038283539501
0.046085518988803885
-0.03712935078495354
0.02301580196086725
0.02378759022147324
0.06387248580534327
-0.05604840042629522
-0.06555848017055842
-0.0515198575971665
0.009302237428196266
-0.05221566315945421
0.0006513894326549692
0.027136655170675806
0.039584140207100334
0.03671031111335959
0.0029192233895869567
0.03930888597135376
0.03614283055541531
0.037547555837771716
0.034463232731198744
0.03617608184155024
-0.02491686858351702
-0.11406630251034036
-0.007446441152071529
0.0055900900976158675
-0.020262638730380783
-0.00662498427826449
-0.0687465233026314
-0.029794412103860364
-0.04568595381432263
0.11230670759705118
0.05371101796565548
0.5168764432310224
0.9078816162561836
0.4046113962321829
0.1400231280299173
-0.014672466806027684
-0.03909336626007242
0.07700403753007315
-0.010084631143769186
0.05545603076373923
0.0429126169036069
-0.10493042809445403
0.011441978601307945
0.036537251645859956
0.01268770509156412
0.016086210696953162
-0.007777292652103912
-0.1247474708769491
0.040465092874839514
-0.018078298305909568
0.025130919296105576
0.05478352502462197
-0.006144608608507501
-0.004011479847593972
0.07729054313040967
-0.0592280956849265
0.0019578205302266975
0.02164532219731531
-0.045379887637155614
-0.024719559228306664
-0.004152558975514791
0.032019029772898736
0.07921345712778999
0.07536488975455959
-0.006255377163473135
-0.02854032296673702
-0.037711392724520496
0.010483942649903481
-0.041858401385595545
0.08857138035132553
-0.009055678539227762
-0.0004978984845255655
-0.042701205467462255
0.08991710337497487
-0.07110097699108162
-0.043607394074103016
-0.00427646429713208
0.028877688997082734
-0.06104694194212112
0.049228526401075466
-0.004017508775032559
0.05315417554976925
-0.046777806434341304
-0.010128397018099762
-0.01359414625630783
-0.04374855545129818
-0.012670651757077423
0.003232089360901959
-0.014343298875799857
0.025755342138108196
0.02183784187648734
-0.062374866889695506
-0.042279539445240315
0.004974585274061963
0.015595242793205533
-0.005014772926814071
-0.015471465221694361
0.023635305978796834
0.03280667381352228
0.10526412036217253
-0.09851137928783488
0.06823066713822615
-0.018687568567004965
0.015629508519079013
0.0064315081684333825
0.07136140091539454
0.0132532127486588
-0.01093118329147081
0.024662377957795783
0.026893241342179908
0.04722602031783356
-0.062175503771643506
-0.06632685839523654
0.06617857682551849
-0.08149645721040519
0.03206660912368719
0.0005139798253898653
-0.07628275182116634
0.05618401960369255
-0.09425589081006241
0.030138195967668303
0.005228070838599386
0.030465050074998907
-0.0030326728682590785
-0.011224050025241893
-0.058969144530113086
0.024673543003284257
-0.009407596276449956
0.0458963710684181
-0.11988006311474156
0.043262186372517615
0.04044295669525316
-0.02505652609381522
-0.01726359794786439
-0.025909016455627338
-0.0028175177016351166
-0.04843727466641137
0.041973643529225724
0.06707870006748633
-0.0042675002208714076
0.042042969570717535
-0.00030017341143554084
-0.005513561086509477
0.06284850190397213
-0.046885460772595616
0.0016431732134561648
-0.04812168592978632
0.005836586211990277
0.0449994699587977
-0.026156746573594097
-0.03496077135753957
0.04286766763804548
-0.0386698108770081
0.0868712603367118
-0.02313523677515296
-0.040756525193644116
-0.0401224149811114
0.0767673629787301
-0.043968582866777205
-0.016710980881190607
-0.04877579170909421
-0.04311699055178217
0.007525868669850441
-0.039274784157949036
-0.05486190866025425
0.060446597681143466
-0.07945942041654086
0.049452954759873054
-0.016557069200268042
0.0033182449714616678
0.050916780205304005
-0.024267528781152396
-0.05879448282027138
-0.029926091049972372
-0.003822043132516992
-0.024272432146421784
0.06561034190279731
-0.0906864616251022
-0.09100517921544599
0.05666186789284346
0.022284867843463407
-0.002721359795961835
0.0733223064588052
0.019725802232713363
0.1872675824347736
0.5251978265928179
1.0641551055537066
0.4979590474076089
0.0783517350592475
0.05948278742683847
-0.017458148032526304
-0.0006433789898603259
-0.028860166202709453
-0.04731044210883978
0.02687809887982991
0.029522469970369166
0.001342269393184257
0.07639681037905348
-0.0015836092026209312
0.047141874144087215
0.05589844309445781
-0.009870146610313504
-0.006992514727403806
-0.06175738378888032
-0.01631779704217438
0.024587798743230874
-0.02296856098826072
-0.04684245908361312
-0.007854275590305698
0.06864536300538109
-0.09350993253769241
-0.015570603090857883
-0.024458248316129843
0.024041755105403732
-0.1129255898509034
-0.024654731084591534
0.024163175391514205
-0.00781698494310571
0.0672078406864489
0.0047234126223732395
-0.02604840935580783
-0.035011539382916256
0.10067749945428806
-0.052445705452116
-0.016007029509248052
0.05384804736338437
-0.013851355343551273
-0.15912878873125416
0.007504118998432348
-0.0867824151339606
-0.03447304532032334
0.007926356314101065
-0.07324599625333907
-0.013098683374561815
-0.05074120021616835
0.03244018246322903
0.013060989256909737
-0.03446830609694079
0.061597546709987766
0.022500295295172237
-0.02525425849197881
-0.08181238888602133
0.035902625276332555
-0.001991854446090772
-0.03462182077463688
0.006519206541434102
-0.029119458029771412
0.049133916634808934
-0.036512751370044075
0.05005840657174629
-0.003378487720353172
0.10980578741646999
0.09353961923988421
-0.09343165965720707
0.010236070955415516
-0.010481914459149297
0.08641010393524677
-0.040502949334063156
-0.024151816711781737
0.01024798900027314
0.002828643933242886
-0.004043654402764599
-0.029447819699521417
-0.04737683189712458
-0.021087797211934843
0.14543888666792923
-0.039762266684054054
0.08234853974591172
-0.000334060942606542
-0.024444975041529343
-0.00845117150034339
0.02849503831113284
-0.08001243518994985
0.11336199843263944
-0.030944072865568512
0.07410490791430714
0.07407952672720063
-0.013953132293331578
-0.04875157271995963
-0.05278026903279916
0.04770646249034549
-0.04463602753697222
0.03122112966640473
-0.010063123209390252
0.07877337087443076
0.08219864238340954
-0.09200191744745059
-0.03940475119780536
-0.01302616827067199
0.056757682277095704
0.04702248410172622
0.01241185054059193
-0.1019335223479913
0.02854807146045643
-0.0439512391183731
0.03499686006137839
-0.09562403960846634
-0.09693961132298662
0.0137079208237647
0.03578179108413734
-0.04825242777281055
-0.0014924541731790376
0.015202447047350283
0.04243656369217413
0.051186550737121354
0.14455758098173974
0.05701842458575608
0.028479766048288103
-0.013800389716410495
0.06835881229048707
-0.02020339405114557
-0.11022968769817168
0.021669817115123106
0.01392369797568146
0.030888015330203085
0.023218888768042314
-0.0051065522195772005
-0.04838222971310522
0.004354521999469525
-0.011104338845501674
0.012659771540969342
0.031975003813220715
0.042776814547583614
0.03710002559254099
0.006595031249982033
0.016925069059950327
0.00023102329019276057
-0.015707967936247052
-0.02334454098857599
-0.009874715727427864
-0.037001958096730174
0.001502975994598008
-0.04017863683396281
0.006054606239770062
0.08663783494249899
0.044992404238647754
0.04754507942804442
0.04814406044590794
0.011152332620245294
0.012848435823743549
-0.027757822356094187
0.02683885903913122
-0.060733641655527186
-0.02217130114082163
-0.01455185173337616
0.13416371172341818
0.47437894241943096
1.1007455945564806
0.5320057091753528
0.09947485279381137
-0.0486415649829765
-0.01898137088208561
0.02542848413185876
0.10677216282782342
-0.050232890958850376
-0.0186779753276942
0.032069726956222226
-0.05839413490821385
0.05870036071988982
-0.017878198227085414
0.05273601118598668
0.015855706120887113
0.026919209813037272
0.06431217207253852
-0.0688169061985237
0.023904540939385883
0.017885561438800296
-0.01051544221117855
0.019214651430482697
0.05910771293097729
-0.006776766853063103
0.06309142769547336
-0.03769172657808421
0.03609572026395013
-0.008169918865617364
-0.06669038142592795
0.01066251907125812
0.07981847526232821
0.03366150143332895
0.021802724266417176
0.12484606890190525
-0.027319158209311023
0.05432096179614119
-0.04234568266566597
-0.017487583852677874
0.025565940663916306
0.083925934121807
0.05520468957379135
-0.018897137028808825
-0.0407393974277456
-0.019065113188478207
-0.0758029033590536
-0.0011816903816620102
0.023406422575075983
0.018710499977357648
0.00020202916058333737
0.05861655307303394
0.07191750168165394
-0.003692002370195883
-0.03591087456234894
0.02342601757987585
-0.028521501870812288
0.04582451089097752
-0.004095086897982498
-0.0008384438802640506
0.0773155161999382
0.011520762102702323
-0.04950979513320787
-0.04819921423732307
0.0780931680965323
-0.03076931990628072
-0.06666533736787195
0.07970776903049549
0.0550757235404549
0.02845116584762196
0.014655232638935995
0.08150308093691153
0.05969479653320701
0.04807624149289841
-0.010230387239111646
-0.10099126977463256
0.06333414614513937
-0.03357485496815727
-0.00024769016549119216
-0.013323495645138905
0.009243405542423094
-0.03605133030051928
-0.12744388823223116
-0.05844763372469689
0.07302478566376955
-0.03019467358149209
0.03696028223716002
0.03004602256524443
-0.03655421224097459
0.06014446519770775
-0.004898782449417864
-0.0005506917996931223
0.02594724670747476
-0.011872288135632118
-0.06007157652960693
-0.04007018263693068
-0.03112708085758117
0.06832471432835573
-0.01609393102516179
-0.0062113888770467625
0.03270600341457889
0.06570806731353873
-0.03271571890089606
-0.008123018966435159
-0.018792608596624443
0.07329549576265333
-0.02241911648168799
0.03972967873178958
-0.03507182807889437
-0.014564568457457003
0.04196397107341279
0.03380839106976564
-0.058946373796314594
0.008805898157906089
-0.020839914443799457
-0.08980213603476689
0.07769045799773744
-0.04807648387907193
-0.00819818658948015
-0.09604512455581342
-0.05650797468950324
0.0268901068452453
0.034220810546375824
0.05337858485854594
-0.022508025070453342
0.05421605957317227
0.05821989829910759
0.11191666899415031
-0.02567949314970007
-0.03354158956545608
0.06176272838171092
0.011858780085930309
0.0534810577911628
0.022156162362512662
0.018963327341059467
-0.05013494582230569
-0.0592762692310643
-0.05567894412809134
0.034841788199228826
0.09196714816630727
0.031079682235067768
-0.14263023452680476
0.0027952449819729232
-0.06054709604809654
-0.1153556668869562
-0.019925457301620403
-0.04919165091874877
0.0818093689790046
0.022111939732514456
-0.022764838204134167
0.008069567888151823
0.034889462059651974
0.061551571855894056
0.37485264170552546
0.9407938480162508
0.5100647584084117
0.0833176824161267
0.006125370949102468
-0.04993712443431833
0.05190013480838604
-0.040189277808987865
-0.046925029838957286
0.02605698138537199
-0.025270861205309275
0.038135762646893265
-0.014862175161507797
0.04559181051513574
0.04662732995404849
0.03610310919739506
-0.029560803739704374
0.08207899313282013
0.007069363623176702
-0.010122821097435286
0.1188008783225093
0.10624820473921229
-0.08782197939573248
0.0044647182955409
0.04160385932143455
-0.018915913599692524
0.011828791265381427
0.004079853242406875
0.09041980528390098
0.054363151866675674
-0.041513066598406596
0.05824999186544379
0.05946762761146566
0.01800220653514897
0.02057357491792089
-0.00331045097206137
-0.0851424143194917
-0.06850460695140381
-0.021926602979166276
0.11029563120080706
0.006144723540565155
0.029786228888817136
0.01842454509654259
0.016845622601571332
-0.060037754825918194
0.04753869568220648
0.08687090467114061
-0.010111065759385827
-0.0028588799790206162
0.014856061975724694
-0.04283099190691488
0.05043349897040923
0.02841378990509076
-0.006342947594990262
0.012113596976886005
0.03372540314085847
0.003090587459027649
0.07655189770931242
-0.01105513803433366
-0.0015880742946285326
0.10413133216699866
-0.07161758446389427
-0.04255368562083455
0.031164563286554203
-0.08523872628933103
-0.026995485964958457
0.0964626244528378
-0.0033251422932570164
0.043087618662872834
0.028235652854199864
-0.038959524516643175
-0.01935624700753549
0.030702304672822714
0.015430517106303715
0.010436928332939724
0.004958683078810206
-0.022013355959881048
0.028577132944177137
0.0891926279484643
0.06655338678884369
-0.0527784295830654
0.05346607614051137
-0.018467165240887717
0.010420008033057487
0.050958218317091325
0.006193057192246182
-0.0821399220750915
0.023298912608499256
0.007058940045645683
-0.07568474841051427
-0.06782225715133106
0.03305823975272686
-0.05429155092602042
0.07725565200208119
-0.01571239648986456
-0.010998886288210365
0.051760642828517514
0.04658577962599274
0.14441465097380193
-0.03735708389964127
0.010808512617906602
-0.03196550076651119
0.02356994334854946
0.008837256201252535
-0.029195209768760878
0.025620108736617266
-0.016853114024861903
-0.04653056419474659
-0.07647965659181186
-0.04654825126689599
0.11766633329733894
0.050883990515239765
0.05389608679642373
0.021906590484579748
-0.0052291672625355504
0.01612177756505871
-0.037748909091958785
0.042743551089717474
-0.011754782043729022
0.00672224551405402
-0.03721736909701807
-0.05840168870254069
0.07175934706090331
0.08445861715934126
-0.07262630953114395
0.0031329698146349673
-0.04104262010899661
0.03289225817154982
0.03502428622268507
0.038156149372729466
0.04665369036755154
-0.05917495609127661
-0.06006299265267813
-0.024982071611564283
-0.03320848964271139
0.080590390351403
0.026172916830760912
-0.0056936854554717016
0.10561590459233837
0.08243513365589267
-0.012462041235011495
-0.0373032799122857
0.014570785236606126
-0.008069045979234303
-0.011188004824966938
0.040814750281870094
-0.004324278798873357
-0.004378010939831248
-0.0019173000306249217
0.03684462809236877
0.0018794947082217098
-0.07078251952152886
-0.028729235162697226
0.05962099919392127
-0.04301830262886311
0.03372411544771395
0.06620999211708968
0.003705023946084792
0.01936113217156736
0.19264606462170586
0.5371460720966252
1.0515951952229057
0.46740260641879355
0.05249659316228087
0.09404645312720944
-0.026425173895430767
0.0028999408925967727
-0.0013932590568576843
-0.025529435488949467
0.0230906203423839
-0.027097722962109425
-0.05352529055254405
0.01439775604313632
0.007042441185782691
-0.03838798342925004
-0.03922880436349586
-0.04983089328527366
0.004916798907736134
0.023583052408017512
0.036557100702263715
-0.01723696505865341
0.009226459519293023
-0.014138916912333524
-0.046972897293674445
0.04677751085481616
0.0979775395586913
0.008931730649764711
0.08020871345186731
0.05391432937374696
0.0028112716457176358
-0.02834154254886183
0.04105658988659701
0.009323339617949252
0.07535973274040436
-0.06412143205699493
-0.002752506942159076
-0.08953386272590157
-0.08142033914453242
0.02118718123541415
-0.0036317500877584377
0.0066173729437341
0.13812763812927534
-0.05930668601048477
0.002816850133197316
0.008501692189869054
-0.00659799651863941
-0.06934567674639819
0.03119729374600362
-0.021148810028922417
0.05618174297911924
0.032844535970277866
-0.06546853590921657
0.06435654980086634
0.0394633813099526
-0.04818840994259152
-0.008757292613662716
-0.03132366487902186
-0.021600379962583644
0.01022206444591548
0.029326358902362834
-0.038577816895045164
0.044745350706490244
0.024920309865668976
0.04331587108136802
-0.03140693252277246
-0.056171048429622256
0.04356602922998978
0.05634527618874219
0.04548434517879127
0.015086280199218427
-0.06885111961412314
-0.06990288405151739
-0.01955870295491716
0.026261885894185384
-0.06146235514230111
-0.037370162684645256
-0.023262396812593397
-0.03230583628589594
0.03805643199685679
-0.02188800005686484
0.01241604952463086
-0.021560689725205404
-0.0038245557434503233
-0.059201821219737605
-0.08724418414041812
0.0302418979559285
0.011613663694140734
-0.0401745144230139
0.01917965292583663
0.0371940474156675
0.022422848492580204
0.06668891737838532
-0.08224210011930236
-0.07187608909121367
0.046002011261736885
0.00033789334001676965
-0.007918839426718678
0.01490616443712997
0.055167864059079474
-0.060958568723044185
0.007239725442596236
0.0856143356288147
0.04848221646574441
0.03527061261851491
-0.058648877274686075
0.022603852274197256
-0.006534315222382993
-0.10421354722917031
-0.02181326824305818
0.036128428837899074
0.050615738355238506
-0.0077194222507112305
-0.05949341859237435
0.005934193056053775
-0.05261027987467657
0.055807775388416636
-0.0681767259517503
-0.020264803755908042
0.010292131163173287
0.07618231252742859
0.08758988171471416
0.03204179210876796
0.015653987947656444
0.02977735878954803
0.05755607943013328
-0.010884162326019249
-0.0043590347625228594
0.005578681912376471
0.038145995638845125
-0.04637786574860153
0.07057165380156315
0.004233496710749833
0.031188401495658147
0.03149868832107601
-0.00724731173532761
-0.046503286388401704
0.05142631175399322
-0.044647421045163616
-0.06567101674743063
-0.04253151503808398
-0.021731936612499374
-0.024662921096241918
-0.030604462640147073
-0.05099148824893221
-0.019146674391073752
0.03646121505840696
-0.03570177369290533
0.07293451274239436
-0.008333511691867882
0.0035221750709393783
0.030857580513918733
0.04166716950551362
-0.0015389006396104759
0.05779064982398579
-0.033480155530957977
-0.015087430990220169
0.08220338174663161
0.10306938322761686
0.5374919359232417
1.015747985552967
0.4442036851009693
0.11116862725567674
0.10675609885961851
0.013307939922173356
-0.0008777955668832435
-0.05385519061546654
0.017889920602597982
-0.06458762547099069
-0.11138006442512734
0.012058289771370934
-0.04839388574337314
-0.0014345382991763113
0.02740149940727468
0.05088923534464044
-0.006216985029740859
-0.06714878048572405
0.01605901135406924
-0.07022098599334407
-0.017931405038146202
0.051044734683334106
-0.02263267686339281
0.00469104564736593
-0.024840720838306126
0.011293381562175795
-0.11930339672146412
0.001973299668725968
-0.006484402730539066
0.05806679518072005
0.001143268051462717
0.005446605089781768
-0.03788710548767299
0.03302629549292905
0.01177306354142123
-0.022271789569938857
0.035340588992275185
-0.004389963320481064
-0.0026413721504503483
0.047300714992016664
0.03625738639713524
0.015138639809140087
0.019955359559692323
-0.0056430867929362916
0.09106048358994731
0.030853235925797175
-0.026583143259502104
-0.0768435037864415
-0.053601945272218565
0.008215124975559774
-0.017325247487588517
0.04082428962028034
0.03491072974022253
0.005097493660809776
-0.024293805544370693
-0.03852896272048181
-0.0201495419089332
-0.05301306484199554
-0.07203014265348955
-0.04018894320832034
-0.015252495260187139
0.07717853048996415
0.05242138686404857
-0.06836718357858128
-0.00970626243236208
-0.002125440586300053
-0.013801687170633278
-0.03190085377065021
-0.12001506444887254
0.057730824832937955
0.008434960779069951
-0.007178039403209155
-0.01014657448057265
-5.152947276351226e-05
0.031582715916828735
-0.05009191912900627
0.06013690269157577
0.00857358566239375
-0.012553222003846865
-0.009579507162282619
0.020133270981890966
-0.011544684041225564
-0.015136214861227888
-0.0728962602435956
0.07172856337351084
0.04675698348765742
0.09852628483866603
-0.02730107704791936
-0.08231615629283678
-0.015035949339414876
-0.00034468299919885323
-0.010761628526381
0.08610016569049278
-0.028762156252222712
0.045369600248092876
-0.040208696898529114
0.0955572287677629
0.06314642211705702
0.04017501523067574
0.06105486089115195
0.04309278553498397
0.027461620247732733
-0.011463305703420844
0.016243963783838446
-0.0409205634541102
0.027857691136378183
0.07908630309948608
-0.011372491702880506
-0.024677277698040997
0.04672482769259982
0.04942753981207182
0.019678862494137635
0.0741000606357075
0.09180974190642245
-0.03942893276305758
0.010391605279302859
0.10984311947598813
-0.04533103690795323
-0.1194613801511309
-0.017843545980860052
0.016753429728532034
0.03685460999758965
-0.05192630709926593
-0.07748729119326501
0.007864387416046885
0.04117760794396442
-0.04941028509287199
-0.047139715221645506
-0.07075383281373782
0.07382065095717749
0.012849389103182632
0.003563119940307514
-0.13076507163186812
-0.06826224055066521
-0.005513367846319378
-0.0018595875060068122
-0.03464263784461279
0.021007903160059946
-0.01891681793952236
-0.022645368914347118
0.0009309499260342561
-0.0027016583292829386
-0.052417211992435035
-0.047126234879886625
-0.014688884733938444
0.06134812321334796
0.004476296502859656
0.03621465581593958
0.0006603733857337424
0.003643707185529147
-0.008505792856977626
-0.05606549785094872
-0.00467564567558459
0.06158664177557304
-0.07521447394425192
-0.008073227587548517
0.09017397275522054
0.517986446897922
0.9408898312322747
0.42413478767408663
0.05869760019706771
-0.042190995834113176
0.05415633798558485
0.09144946429418903
-0.00544378726715227
0.016593153158796958
0.06706248543446272
0.0944209461747696
0.0016528103591295015
0.06858907303951993
-0.020529124991024755
0.0088577555425018
-0.0239463306408403
0.041687590314701865
0.0773435499522256
0.05300784567563515
-0.04620844632603329
-0.04466127993235284
-0.0753114981091477
-0.014974460479292765
-0.010939621283286913
-0.06203862991539924
-0.014136636189737345
-0.008390921854932521
-0.01144936280622136
0.12372164418453072
-0.06654427273898264
0.006135877472798189
0.018858718076484874
-0.0764405895429463
-0.01935397952650925
0.0420710351440538
-0.04180907221402255
0.03289400362141446
-0.01862982889651769
0.024562061232349035
-0.050626014519176844
-0.03633005560277404
-0.003482663362440779
-0.04496621960911813
0.02328314921428092
0.0213912988958182
0.073549665285424
0.04439212495501272
-0.015057175890969563
0.006876071178778612
-0.023308661013830303
-0.007903645248308801
-0.06019042193453007
0.049658780679666635
-0.06925049807241493
-0.034775596068508156
-0.01661346131259012
-0.015348394326214976
0.08301485773402044
-0.07132021089505626
-0.008303554879078407
-0.016127445348675686
-0.024682071331291397
-0.02641725885473027
-0.013944193828364435
0.02605523972563642
0.018333307239362905
-0.05930274595254316
0.013142047581554357
-0.0830815092655223
-0.04406719748721754
-0.10182636336970033
-0.019831672280889494
-0.015289818575581052
-0.011694150448065445
0.020502547002260535
-0.07666899947667007
0.023946003925718558
-0.08454455756723038
0.002542438328402277
-0.00658503797386745
-0.022491958147879042
-0.025631977815775704
0.05558414978055781
0.029363881725503027
-0.016777554186222815
-0.03628929519569262
-0.002177402597234116
-0.015417809055904508
-0.06504377585021268
-0.004438620459581168
0.025429678817508784
0.0429655772730906
0.031252371749564696
0.03303743884460645
-0.020965686069499494
-0.019353629851037845
0.016416917155220114
-0.031578828408086713
0.024964674737228906
-0.02534751492950282
-0.017400027948260594
0.11836500850393808
0.019303990077309527
-0.029004042254362858
0.07243995745351378
-0.06787526417562915
0.04769950463217157
0.06472251345906287
0.0789652324783773
0.04601220920751346
-0.006406829440302932
0.02438565933204104
0.006333371475000194
0.041659275742800525
-0.05832589861619362
-0.06191196494550527
-0.0490301930937614
0.016093721966543316
0.02415595136971161
0.03794623628979463
0.17023465548603456
-0.05479812096265523
0.07243623194617631
-0.004057341672859154
0.009913138209385134
-0.09389652545854299
0.02900378122009193
0.02969083904402366
-0.030595086243978883
-0.01760546626983174
-0.04905248813813911
-0.014396900003817568
-0.04633327099957401
0.08934026465221105
-0.024502177807197927
0.06349942698569461
-0.007869058285393466
-0.04871635251123918
-0.10769892452224682
0.09208908779506308
0.10842904377200552
0.020344891095196563
-0.04457556504082644
0.0700921264570388
0.003731492300013137
0.04270450823028486
0.03341452972710068
-0.03303882905482091
0.03506918128387538
0.10250897429091894
-0.07557818673891119
0.00610915661384763
-0.023561932578421367
-0.04519777057178987
-0.02075098602558079
0.14552313355215818
0.5014263666977623
0.9440365620748609
0.5723498789166546
0.17213511128956743
0.05667814504469581
0.022241857731524105
-0.06267087037253512
0.014305770652951445
-0.03899966474240666
-0.002589959909977204
0.035309807167995075
0.007575624416600955
0.0464474757365703
-0.032748923746614034
0.02971267229491256
0.0598824693337503
0.06708434582712576
0.05579361088338589
0.05078966905682595
0.08619572737517224
-0.06378473041515328
-0.04648185817949077
-0.006713943020557051
-0.024335226530590105
-0.03395046386092642
-0.044559453626338175
0.041973963035835456
0.035516349999302
0.00674491404637757
-0.03548515032442172
0.008800325596187935
-0.029734954966335266
0.02971411059512103
-0.013180075839925191
0.017360565477479446
-0.02417857835588529
-0.001166041752198116
-0.03016711332028099
0.027080590369189646
-0.02176829822869278
0.05378469198218543
-0.02609497185252134
-0.027176935162798305
-0.03167032319203222
0.009204222487434521
-0.0022976016554144686
0.05896884365580496
0.0505051858731696
-0.0028108994703955528
0.017266648836392177
-0.14970683983986152
0.033301477578200726
0.001318019633336954
-0.024128148197418993
0.06477017928963698
-0.10231890797027038
-0.05200848315478921
0.04899639672375829
0.009033945647387624
0.015116058267248387
0.05144135150975057
0.08352911785663136
0.03632165362542882
-0.08632052135097196
-0.027114224467117334
-0.061922254935647236
-0.008655995518029926
0.09698294042052166
-0.07117806558272469
-0.01188278668059989
-0.01121000149435061
0.039886072811299356
-0.09096536499720537
0.04592093115927217
-0.0009625981790553199
-0.054734159544225836
0.011095142226469108
0.05448019264306714
-0.01122681452175856
0.01207873548003769
-0.018370193471287006
0.13113669563944386
0.015436372858140916
0.026324060444208097
0.050234646228168846
-0.024140639031679723
-0.004205850738608424
-0.05441027329517611
-0.020613702655450417
-0.04614446623818632
0.004112171548259636
-0.07038567789884906
0.06157722973006605
0.05998154277758282
-0.03614021847393956
0.027058242684515905
0.051060991075701
0.04258074675667764
0.00010619945510422394
0.016714246302918314
0.11381287017785574
-0.06958736009096202
-0.01919350709181206
0.05203114934103956
-0.002558377903559601
-0.025137889626007416
-0.006367615718544932
0.047791698652935165
0.050435733407304006
-0.01899903625707977
0.04034141436108634
-0.09954399356806397
0.07819830543874541
0.0064993315057110665
0.052530519928628644
0.01366059804022754
-0.03863734916024644
0.021043092279287117
-0.0004751113787545124
-0.03892505001018573
-0.030224244089512898
-0.08535182316788409
-0.026583909298830956
0.07020432509584652
-0.029695259387639686
-0.03896019597087117
0.0009085854561031088
-0.08021696438642689
0.014062057561451936
-0.027098594148515773
0.044474792099332555
0.028510817153751686
-0.044272993967549905
-0.081713734233143
0.0776431903198167
0.08619257936085979
-0.013468258355411787
0.12917088865824045
0.04820299782158213
-0.05505982753052679
0.017300273562739603
-0.06288793292398097
0.005682153847970292
-0.04418452687964359
0.01531658715746351
-0.08861752427940277
-0.0421804960940145
0.004658882544669915
0.012546663189605432
0.05182085567128006
0.0004878609011078639
0.08683792836691562
-0.012920262957166912
0.07269323496988352
-0.048800202039759884
-0.016898811426831493
0.050025164529845526
0.4193925515422916
1.0529324373098958
0.5413164970965048
0.15376362543711186
0.04090184970073674
-0.036549247042145364
-0.0630520922636071
-0.04207292964082253
0.11675752603174634
0.10134211043524262
-0.027395290793397916
-0.0590077790832623
0.01484711990760787
-0.006094103479265507
-0.06271533498411024
-0.03504368259946835
0.0059759913881746955
-0.0639648744363274
0.12065393272475378
0.04597126378615371
-0.05552665436970954
-0.10126088200798694
0.019881286788959916
0.03438603519154521
0.12968388153101948
-0.03307685974003626
-0.061904633182323456
-0.02504166802701088
-0.014556730834749142
-0.0025727443406105624
-0.029245834079254508
0.004009752318539943
-0.09886919572327497
-0.008178618923086915
-0.0649743948886232
0.07104420719491288
-0.0691111653219665
-0.06483570838111506
0.002337038703044937
-0.02530501119109518
-0.028774240063538615
-0.02709807586645524
0.10795426074589615
-0.031121660130091513
-0.09899968377009305
-0.01582996661209575
0.111786299638449
-0.017702313979980542
0.030791737854623105
-0.030331084681733064
-0.0018111862288020337
0.035454642728057394
-0.0034163994742473255
-0.019136127309448043
0.048795056353165125
-0.05604751621094948
0.027467307228306665
0.027895791480589828
-0.05458378451492127
0.08697843332400125
-0.026982728054543395
-0.011621354455129473
-0.018046650158258012
-0.04976650014473055
0.0023454488352802824
0.06027657043988364
-0.012549301460501816
-0.03221312078175376
-0.06861643323269957
-0.015216666454717965
0.008230143006601316
-0.05188751027166641
-0.03630821126946341
0.0566927771880991
0.04992364576820449
0.06818346970094853
-0.12556617572115092
-0.02374572321809174
-0.046337241902402765
0.007950094377714496
-0.04017698461493849
0.021468935865150335
0.16523560349402536
-0.01315456882191844
-0.017734877099264686
-0.01889354524603605
0.06343346951498993
-0.028154699207426605
-0.005182222750167981
-0.015629873028076613
0.01731252187157579
0.11882613037247439
-0.06702682969942861
-0.012269559516100457
0.012344270894956235
-0.0648334709174213
-0.04233772940995404
-0.061439738644741296
0.004333747157099505
-0.11627454774785682
-0.037767910251414114
-0.04139767709461357
0.00357208548884663
0.15022633409319794
0.05124467146569925
-0.015998009849012725
0.024559472652556896
0.08501976825492363
0.050118946707378535
0.010463853754647359
0.05812886822653747
-0.0005785105615596518
0.024999646171818546
-0.01574706662981827
0.015905767444893335
0.022138032527227573
0.012037205870106999
-0.08816798923005237
-0.07674520684963582
0.042169859518257996
0.12309637176258921
0.03323497151223114
-0.02632979845985277
0.06377142778344186
-0.030551434756223652
-0.02927639408144625
0.08654031546515306
0.025952410536972333
0.06490469131031798
-0.06889519823967914
-0.06680623335908226
0.025762079869607657
0.008099908820201517
0.08256596793879789
-0.017730936718177125
-0.013076032637932614
-0.02178822229379089
0.00947529112142951
0.04146199058393657
0.025861302317351384
0.031977063101721326
-0.06328979423790246
-0.010917419839864016
-0.0028753041381706797
-0.0456408799233641
0.027800807686680758
-0.03132763273187266
0.08083040626501119
0.04384367660029819
-0.005287967362155543
-0.07534932359466529
0.04774775114799912
0.014358206532174709
0.010629721328647304
0.17409599628651312
0.5983617670807606
0.9770572577147917
0.5465540737662589
0.09660729558700741
-0.03486429797283582
0.011017812989578508
0.08255927046710439
-0.031445043245568766
-0.0015163208152950834
0.04290511456800689
-0.024208650960834324
-0.06899420328463761
-0.028381663072682053
-0.06399351629717963
0.0581117184930347
0.03664721553736586
-0.018302782819646913
0.036268796399681336
-0.0013648473878338232
0.07370948171443002
0.041017622314363934
0.06650302707799896
-0.05215345661438412
-0.03237980424330501
-0.00015688385490962665
-0.03680748950898729
-0.10463631953662103
-0.029369714394644045
-0.022989327206738193
0.06659753356923029
-0.008395099459263493
-0.0007576846974939836
0.05843428547721459
-9.333327242140334e-06
0.029608988766052637
0.06592076658074524
-0.06625983439839545
0.043968590797066553
-0.07347427542292925
0.05294810226542826
0.013544128285596955
-0.056412247862849485
0.02752183310537138
-0.0609722573817439
-0.062056141566565706
-0.0021067103230343344
0.023626246420567504
0.04772304483324352
-0.037178668746815934
-0.05877678844801776
-0.09786359172844267
-0.09187962276176531
0.055781900192733415
-0.0011331121148143444
0.05547456985677377
-0.02076769535165859
-0.007012505087947388
0.08148021205607814
0.05534298821802746
-0.040617766431859596
0.02891409594293845
0.08528565976509615
-0.03403369481758482
0.07591137725601647
-0.025777566472822935
-0.12821588672951173
-0.031569870930061104
-0.020202562797993595
-0.08786980071124392
-0.07371706504212953
0.0005834883530494461
0.013650491686752066
-0.01836208305482646
0.020866957880214212
-0.027755971215870187
-0.004658311507115252
0.04405166921286724
0.001394873767450441
-0.10416709747837234
-0.0355160698568005
-0.03574388389415714
-0.026827321841877073
0.06164404715578269
0.021921194975098403
-0.0013313980709834567
-0.013071633908984052
-0.024207879933650173
0.009726375500210549
0.1022663220437091
0.03728882043178274
-0.0827707858753758
-0.011462549415189914
0.10111307152686007
-0.015430624118698763
-0.06310591929576247
0.014756184333268052
0.02575586698538513
-0.009921941147527803
0.026033276953326162
0.05595952804639609
0.04691031063754224
0.033991678668842944
-0.03373815909160342
0.021630351574804526
-0.002555816623088316
-0.0940435225864685
-0.11545819845849077
-0.006521245465439512
-0.0004919521949467127
-0.1289528687983366
-0.03742262170908654
-0.04588451366492413
-0.12555417999618743
0.03993245950273008
0.013997229169695126
-0.05335612741826171
-0.013178641484908011
0.03202111882268931
0.0384476027633296
-0.08683389358082383
-0.007520823896246353
-0.07679130185950038
-0.02029634544857295
-0.045843722055632335
0.0002857842429874154
0.03718069832297839
-0.06002289246703545
0.01945525722932506
-0.04131955682620435
-0.09541211898501159
0.12989411196607747
-0.021467331345969388
0.06442940645875232
0.029851121611817872
-0.024939421436626922
0.04709870040932766
-0.04987594273415604
-0.08448441131204046
0.04960991090868425
-0.12461539043416735
-0.0002552766303194039
0.0805173263415806
-0.018431942368241038
0.03383213902744255
0.06952478371935465
-0.046355637708393016
-0.030367445828704532
-0.0534953707508046
-0.004091277340229228
-0.03240557339479905
0.010401462746256133
0.01721710529753478
-0.001026551875422593
0.031823230837104526
0.06439267492560755
-0.039713167316260484
0.02256499655717034
0.0031335264580961025
0.0876806005243288
0.010909268175072886
0.12052879529034252
0.5209082667399191
1.050019003927816
0.42214865510175564
0.10515884695718457
-0.008516114795199228
-0.02535625215577608
-0.01566119024049278
0.0020748034292268026
0.06837674013432433
-0.08525010116200286
-0.05348368994545272
0.027966517563635725
-0.05373172610229474
0.0357178012030789
-0.04238247503587911
0.01581399275577433
0.03974134830353794
0.022532728512059296
-0.04550407072636462
0.022042256373897288
0.004053121761574799
-0.06676544288092852
-0.06250403673231998
-0.04058536790731365
0.08173656725514727
0.06380796598517002
0.040255115190868135
0.005083615158099481
0.07764425967986142
0.0028936775717518714
-0.04987719258052333
0.0049713427974462385
-0.006642165902695556
0.003816150290688618
0.003963263898183594
0.008673840779742212
-0.007529660710321472
0.03673932111960867
-0.01866479189297913
-0.0029611098151966415
-0.06723594551364794
-0.03907207521774028
0.02130631843539972
-0.05459409336966575
0.06323563746869926
-0.043211851080312294
0.05729459223870636
0.006562729910076013
-0.003053996938643628
-0.0066803898757796356
0.037915213701213646
0.051648721047842266
0.005257223598865155
0.007190957555964184
0.07586564079859683
-0.0468443309918809
-0.08356227548252941
0.025330656433794497
0.03075649688558106
-0.07700757518470702
-0.04002705546463703
0.009951233279342182
-0.06248984941420302
0.042516220328926844
0.011212819255667585
0.019829445029184812
-0.02788819810801016
7.48358452851157e-05
0.0651699936360121
0.019465246654467572
-0.03473502756821879
-0.012662489911551467
0.0452086077185104
-0.11209345535333684
0.05964415578944163
-0.08759536080558078
0.04981027151699891
0.01959430920270709
-0.12470506071420835
0.043868973315515036
-0.03310164607363266
-9.762557138241972e-05
0.07157183505085817
-0.09520871523307195
-0.02105977962958637
-0.0332854430349422
0.04330259758196601
0.0021203048863749174
-0.05144951320880442
0.07497241765099652
-0.037963498503816355
-0.009353485727048172
-0.07793727708575801
-0.08010613512695554
0.08905271300565348
-0.019166046214870166
0.0006956609870437389
-0.008685125416637057
0.030925046200068824
-0.02488488697779798
-0.0664149640363945
-0.053394545041974766
0.05391593045603117
0.06059580420212263
-0.04675506428990811
-0.008024256508487279
0.08216967539213815
-0.011587888032416803
-0.03511476982737011
-0.08660104326515389
-0.08363639121500391
-0.03708573893696084
-0.03153937348268124
0.012867930603453407
0.016516200713678368
-0.0554910194104999
-0.03730322296253708
-0.028008271609184933
0.05411479845975799
0.02856277678267205
-0.11189036813594995
-0.059206633823597955
0.02776959550799382
0.0008901535292926224
0.06884967303821903
-0.0033399266347893955
-0.04966600836804065
0.09465024110824825
0.02334361779063852
-0.023658815823352608
-0.03441036696088478
0.004623985931277192
0.03782284385623949
0.06814353087810078
0.021733229707268605
-0.03357011689638409
0.013196595268674283
-0.09016782647830818
0.010201209714333408
-0.047369984046639516
0.10066350962840497
0.06740789368101979
0.02605318634537005
0.02413786197827045
0.024340312663756677
-0.0702547861152452
0.06889886247128375
0.006373926430414516
0.055320218153167226
-0.0319562440624588
0.05522097875417721
0.06365959886308502
-0.11430081017718215
-0.019260210762497457
0.09798141807642721
0.5161078410656204
0.9930816268269684
0.4877925169662618
0.1376242023005357
0.11464084404270242
-0.054762815906573274
0.0235615833223297
-0.01795264411653791
-0.04471478735901148
0.025606482296193507
0.032328374365892684
0.05507443070497012
0.006323904903320624
0.031175353312775225
0.09770783608169283
-0.0020732261176104427
-0.0048053025278987985
-0.012818259783271611
-0.10237000808960142
0.07590210543978769
0.024917064708212602
-0.0881482042725483
-0.060151745591004196
-0.017379904271681883
-0.032910893209339924
-0.020898395005163817
0.0055483623414019885
-0.02435253006341515
-0.03291245548585063
-0.018576986694078396
-0.04322505200356628
0.03271984147935448
-0.054029789974472366
0.08595641113822326
-5.54997386093051e-05
-0.01641026286764574
-0.027641464339756547
0.027432831095670213
0.044905870146213334
-0.016640141660084044
-0.01065914617026057
-0.03665301978821368
0.02454990791439849
-0.03705857251646633
-0.06377543246386752
0.10263120264758543
-0.03862073181744781
-0.09061890517257837
-0.02809341285440224
0.05139873185116457
-0.0814180211101476
0.04233774893774813
-0.07619654011974661
0.05544096930095415
-0.030910114504367286
0.013861020016845443
0.0855284936948283
0.03716236613323656
0.03892217314864846
-0.01651839771144008
0.020256711421990817
-0.021249683601031064
-0.026926895318496707
0.022702773976587518
0.0341512099395472
0.026309618630397852
-0.07626861068151909
-0.05422718133400372
-0.07148600187507749
-0.048250671146953035
-0.006903029631924729
0.0742198317118132
-0.010104210715932902
0.04867702317295736
-0.11463312128906869
0.030578799000708957
0.017261335428407357
-0.07045738026680458
-0.006740339172901812
-0.016534274611124812
-0.08531779383508575
-0.10382002115767255
0.030155132032691302
-0.018385962105101527
0.05994527756314405
0.029561981836534846
-0.017606394845558343
-0.02786587111468766
-0.04397302424613837
0.022216832023597
-0.02180924108986502
0.011327085355140435
0.012898575024100124
-0.010747139013820165
-0.030454946314677475
-0.07160382485432779
-0.11183423575740677
0.029710085792616903
-0.0173043015508386
0.013965199429310963
-0.01076082765508176
0.06130877972047068
0.04140685430483985
0.013463664684356927
-0.01785926995283436
-0.012167858596746616
-0.022214286131608744
-0.08059496272781805
0.11433995266212196
0.02509305681324088
-0.0030115679058631954
0.026783224607664965
-0.058035891185522284
0.09702994358856153
0.07385878584476428
-0.0016318517797336515
-0.021198201928091687
-0.045454009065655235
-0.04735255642809999
-0.030658966681732958
-0.006604597878129875
-0.06234562598624321
-0.017847922923451536
-0.019192126423474537
0.031866837478608086
-0.10874680038933465
-0.08168920931424123
-0.05421817326425025
-0.03341191053425726
0.06888908449902813
-0.014668394804892496
0.07101005666226337
-0.03520843909221718
-0.04018611842808578
-0.041796635278884386
0.04935439285517378
0.011308125964310614
-0.0002807094439811306
0.021062860724012422
-0.09500161616752353
-0.006790331055454552
0.031892995768001635
-0.12100929482702216
0.017665658775546076
0.0396349848521227
-0.1241135853283651
-0.02413234946784246
0.05051901482967089
0.09517294557950895
-0.015620457740408867
0.011441189769698538
0.034416007625399384
0.060737533659442546
-0.035549909669348005
0.14523248425821078
0.5059754315756169
0.9580985955112447
0.5659700743981321
0.16425447417591277
0.006367481414856495
0.045571668086722875
0.07456367547246562
-0.11061675675795848
0.003501081504453345
-0.05041690275262615
0.010809064470508535
0.009485020778053794
0.04114066316218562
0.02798711565279649
0.012022596327543829
-0.04150356091324079
0.14613416219046735
-0.05691626043941165
0.07787050912803871
-0.07038174401291258
-0.0041550459012141125
0.015875392447749912
-0.04541310374526925
0.023938549458907034
-0.0350741450756892
0.02093249809767934
-0.06145713449484117
-0.04252262357005898
-0.03583115229453484
-0.004265798966533919
0.05115901246683818
-0.008070097514165535
-0.06532112137484623
0.013191622307472277
-0.011101700265234713
0.021082136173261358
0.041525147425489704
-0.0003083007669367921
-0.04691816955955827
0.005146567000865644
0.06539922179552304
-3.646296539786225e-05
-0.011364909269111469
0.01451222856399079
0.004311176874876278
-0.013263881586062435
0.054016847051273346
0.019041481203435323
0.04845266359480899
-0.014271675265791432
0.031045237669048542
-0.04948337426084621
0.016429703843811174
-0.03635598173598811
-0.04691404837346262
-0.010035553044186645
0.07580240474830419
-0.022861691633049654
0.07662577263568156
-0.02799266156406669
-0.020136785753502223
0.01596178787865132
-0.01848503605809707
-0.011954385335912844
-0.004285621049749636
0.07837775730551848
-0.11384422356439235
-0.03992669016882458
0.0027391257906373497
-0.04218958225236401
-0.002111710595970553
0.120318794017988
-0.14235067632707454
-0.03451139841096128
0.03886604090991905
-0.05611497154946513
0.0004179819988257515
0.06635817204508908
-0.04293863672781953
-0.03071586494492401
-0.0058180248366860665
0.00848525071090341
0.05423313711542374
0.0031012421630684135
0.08299243042641231
0.07191539280405265
0.05770812716050938
-0.02235468382601871
0.01800534283565844
0.03526411423420982
-0.03526221423795793
0.06300957011869752
-0.03761842407722418
0.02742074853039149
0.07820405879310037
0.008253723612622018
-0.05535655079621346
-0.07126810497457603
0.08150489793558233
-0.03426269726013841
-0.021136605359346666
0.014226548473114338
0.05924120633184422
-0.012172687962711263
-0.05559563927782685
0.005139436720889777
0.07986187250679513
-0.017360899682430167
7.864824701391081e-05
0.11667734736842413
9.320330251456606e-05
0.06532219178721191
-0.028423701519123813
0.06490865094067189
0.010103057713655238
-0.00738862696728468
0.06527773629108548
-0.1148418994848566
-0.05481721968054837
-0.07961110665801335
-0.029516383878141556
-0.013460809976735084
-0.04453076489795249
0.05769487831995285
-0.007729888360580677
-0.013102719855759767
0.012801850040750688
-0.04060942216495167
0.08755572205451556
-0.023543532979994862
-0.008212252796690312
-0.0017326819179199163
-0.02922695596944366
-0.034961797550370786
-0.023495984313430883
0.010770114545596956
-0.0308814658970771
-0.019493585912708535
0.03575377610390717
-0.028346158890039854
0.018844602610399067
0.017826896919126416
0.016052427394748832
0.03913363795838089
-0.05822401314521697
0.023444343034379332
0.018281522218208304
-0.07034060544761399
0.059638349355895716
0.032673784711207986
0.050758377522070346
0.010570110431246635
0.031007782116002382
-0.0446437200855013
-0.01170213039191014
-0.08445287956025593
0.00973284149446818
0.5255624327691689
1.0169581213127767
0.4907423502738666
0.0972224064782583
0.02633516457169538
0.05438822985365377
0.0012804896720137171
-0.03191854786453572
-0.0455639273683975
0.12416106824084437
-0.012207264449923153
0.07979312041813226
0.03716198445992115
0.05032157137040293
-0.10359433497580102
0.04554538447777235
-0.01861383193866364
-0.01456943909591641
-0.08202088426172519
-0.003763406155658114
0.08039992800595365
0.00983030322454236
0.01948820123661437
0.07917225956104106
0.023738843032862077
0.024685291146961247
-0.07637311019821008
0.007060750910231065
-0.008072099169199149
0.023241767418653025
0.011198230693725431
0.028999372720209665
0.017372108079045562
-0.04567740534328752
-0.04068760861011744
-0.0944843420538654
0.04482458321058989
0.04064300954510328
-0.09660733771027051
0.12239036514557003
-0.08230507386811742
0.10667754813080986
-0.06679079397645753
-0.015126335788372428
0.08024960359018614
-0.06801605881573496
-0.036524105076114914
0.0011662859156790913
-0.04458184218342826
-0.00543539145462636
-0.01890019143452336
-0.05115607861450763
0.01621024618125835
0.015503150703262303
0.0655118854809518
0.04066408278808866
-0.006294232332956232
0.0019781115856224744
0.01130260207545648
-0.06762262019528238
0.017857116529161478
-0.06576213466687786
-0.0449343708818445
0.02447602995747894
0.09847530370192176
-0.01925584210722919
0.09053223436863675
-0.050537767323093535
0.025081408136787654
0.059753292931353064
0.01331071962338768
0.030491162849405312
0.07319047137258286
0.00473679310070876
-0.07049999112827521
0.11512886510773766
0.07353592906626864
0.014276900055968135
-0.010250898703418564
0.019460017068666412
-0.027424779347906148
-0.011868519559656211
-0.0055133276904341475
0.0682498507515612
0.011705341820721006
0.022741325324221875
0.044846431228601456
0.06315800903324938
