ecg
0.0826039658649116
0.5364479827479778
1.0338903138609539
0.4832962076608832
0.15109720503646523
0.0075869591143410894
0.00376338062376217
0.051797535712887754
-0.04431866363459825
0.009931951338181248
0.0017284363850186256
0.07356528069712402
0.04283836049941997
-0.027664713258893903
-0.08379186117524169
0.04741149201647466
0.0652776418302958
0.036172865187177744
-0.01886565152889883
0.017245380802359944
-0.023877298477819532
-0.050221047567010436
0.028704537169064945
-0.11571735608754237
0.015179251309127659
0.02663986528676825
0.07549266828218437
0.025049919236096976
-0.011509602230350947
0.12900124081421577
-0.031975062956458654
-0.030775682226642693
-0.0469309883831073
0.030906224745880284
-0.05142813640397573
0.017386327466682856
0.04796272912915206
0.09716321674788002
-0.033024204769621555
-0.008813092234938051
-0.030899382481124744
-0.06541474593757944
-0.06192626723989717
-0.0726697566139383
0.08706270490920995
0.015645898242322775
0.0024781574845084402
-0.06009529147992339
-0.01337876181948356
-0.020122620241936864
-0.02580766434466434
-0.06770764263368584
-0.0006627591303819081
-0.031336433946242116
-0.02070111713047615
0.00803479398798411
0.053471738324209345
0.056336564720999086
0.037629081820792484
-0.002127142759302688
-0.059129024400399535
0.10013034193805725
-0.0058439665134474555
-0.005414187109816535
-0.01996846667639643
0.02012967756962076
0.002896673831314653
0.0504810149559195
0.08505173804127042
-0.0035755283777991753
-0.023378803637136056
-0.016361312578653312
0.006433129870473255
-0.00705800060018991
0.025362115832676415
-0.06334026686815146
0.04548816310999054
0.019400630611371178
-0.01431697618480555
0.045447323506610404
0.022961953456401705
-0.06092766725788238
-0.04134950203423667
-0.015610704994990274
0.02376860538740915
0.03164955909683972
0.0189197509136744
-0.013371851672150496
0.001770142364302063
0.05335823712623569
0.028206412571466905
-0.02183649650209604
-0.02950634322923792
0.02255356265823016
0.0011488485920416644
0.02284496195684682
-0.06973483629542314
-0.023047298853780124
-0.035386507258052834
-0.041636556715444285
-0.035119668391209925
0.009381119642144626
0.10513798743180809
0.020608895472848807
0.06554379194466005
-0.007165455459179854
0.08578858628749775
-0.056196214010047346
-0.009134785213300044
0.009678043979687662
-0.02170352984331551
-0.05112970756421481
-0.016563962765535924
0.023274203321550623
0.005962783590850275
0.027033767694287354
-0.021151246970541437
0.05618654271207788
-0.005801948405622303
0.00647293709995352
0.01563585549388571
-0.0958279927883913
0.03421353367522925
0.01904540044788647
-0.027755735147710653
0.06251793715941135
-0.016486983783403655
-0.06585072987788529
0.017990028176387673
-0.022386222740469558
-0.02467326844357599
0.00665693345475637
-0.05826201697148643
-0.00594766304166572
0.03877123031970292
-0.006646690851497997
0.015216530660809045
-0.0036063247783610624
-0.034717621250749335
0.009546685190001339
0.009946039992635112
0.02818837138024435
0.0017903895051781455
0.004707174822171371
0.01163406563487764
0.03295324080414345
-0.005545935603223288
0.019785989743379206
0.0923511870724577
-0.031248921655738362
-0.08106115441141144
-0.0055670457963711345
-0.03945472368056486
0.08359354465494177
0.5091971566269872
1.033408253009537
0.545049017790849
0.08164750721024537
-0.00066001195381998
-0.027424616499504062
0.045032965472764
0.05546489110984938
-0.010814775148470408
0.040305567787554
-0.013202272464250792
-0.038130874438571126
0.08025530052478327
0.015178764076424715
-0.01566381680499342
0.11625274108960995
-0.010211078457208044
0.01618680233509402
-0.026104266373647628
-0.09676853222665535
-0.05732264219128447
-0.0038377752496870695
0.05046993684169181
0.08155974745795415
-0.06490887782620079
-0.0075288946268111286
0.11831661309122476
-0.046456157917049795
0.026860806694005653
-0.05322717325106731
-0.03175411173990527
0.01269199534658539
0.0994051514826213
-0.035043330297775246
0.029593342473558333
0.01349403017058165
-0.0015735151747011606
0.03151253513638376
-0.08009002758193882
0.03286251298548801
0.02443814719371204
-0.00043238276461148446
0.005049075965699958
0.022550708766127744
-0.008115110258771183
0.0708473144200579
0.03158516772275382
0.022418089678555318
0.07257658822232729
0.06384125408379013
0.031759514878149424
0.034431796349692824
0.06318031047645
0.02991013527345986
-0.03457702294140643
-0.04973269864538516
0.011984980275257712
0.010950276664094193
-0.030158212457147355
0.06475602644772409
-0.039659647962840085
0.03950667876556204
0.016616949430996408
0.011343305662008547
-0.061391530496377356
0.018916300647493847
-0.12491516837303634
-0.052706860047536976
0.03821074542855134
0.04770725821014182
0.011910899392729964
-0.0441365773200344
-0.04845664861888966
0.03775345566694538
0.050280892110420895
-0.019141292736337773
-0.034358497914433815
0.09361577338579627
0.014670212305996614
0.041362996644015056
0.0028244361958141492
-0.06550063945294242
-0.06642809542714494
0.06604946880496514
0.001776762564789482
0.03211116148339771
0.08155450636237059
-0.00969582726967312
-0.06770008980582705
0.024784904969209168
0.022917742527590858
-0.08285450739043662
-0.02580308989177296
0.05078242831390273
-0.07107162345985944
0.052046357829074345
0.017228436801813112
0.037467807680633326
0.03474020915936934
0.037305682898916094
0.0705664041282605
0.04203795618905104
-0.16286192144917727
-0.06474684879886437
0.05425376695178813
-0.000129440780412026
-0.07816927355211244
0.039140394019449555
-0.09838147239460293
-0.005355121181185952
0.0029325338153147473
-0.03553131953828165
-0.008480718277128554
0.02736777110231426
-0.06513657291688751
-0.07247687377301995
0.010879119653635578
0.040815153499613295
-0.05641326767627424
0.05929484192369603
0.1312225459040986
-0.02182185675960108
0.037815003586860685
-0.0002957054372006815
-0.050880103660554545
0.06481067719270767
0.04900047721707366
-0.05253061314073531
0.009582383662404178
-0.0970032905791311
0.07252299645213658
0.004251708459265052
-0.005417759421597778
0.05863505408732901
-0.036947456225551206
-0.047836234243645664
-0.12874754970020505
-0.004204952876560576
-0.03950373952378916
0.00018983491558622354
-0.026826835256160766
0.07071874183831223
0.022908255674483322
0.09972414820541878
0.04290620574431123
-0.14643980846192536
-0.0025540961939813475
-0.027853202119628925
0.032765502013981075
-0.006831474607406227
0.017455084318233043
-0.0206891882957996
0.09993410855479329
-0.03362014205490213
-0.017653132896811342
-0.12091988337932653
-0.0023149463754607476
0.1581461969599623
0.381404325955115
0.8944052418861153
0.6012007862882377
0.07576294246645274
0.04352609792141752
-0.02521112991617505
-0.03130661626437807
-0.08564074648168576
0.03116507204971742
-0.025142499978368933
-0.003699819009777558
-0.06313446991387424
-0.09787720378491138
0.032870546273114566
0.008407218544710085
-0.015055787501067668
0.11616265465088112
0.0015487557105045846
-0.02409190423618365
-0.032743521660618016
-0.058972807562643406
0.0650660116537765
0.03717562925829398
-0.02865498647488355
0.053095021174493856
-0.02651004200195265
0.013643847799275136
0.04610357045889109
0.05193213093952377
-0.011144994133405877
0.0809211452605269
-0.044501699889773934
0.12433327832144643
-0.04449152744311052
-0.027734030148391417
-0.08479500735643519
0.019855158407627124
0.019622171349965342
0.022931275480370383
0.038461702680457545
0.017001040772648544
0.03175365606393895
0.04727262632768595
0.08002231216981603
0.06160658169770083
0.0312648236970337
-0.022335780105137194
-0.024086557576426276
0.00795394495883116
-0.03189163379196554
0.03786259157567077
0.001769445221955686
0.03627317622047598
0.0023713279076921787
0.021724465498056768
0.024167394960692114
-0.022850430971911678
0.03512911632453398
-0.03344432041173863
-0.05622134642549103
-0.04827301329386361
0.017244494003810344
-0.04018311390661953
0.007623137062624858
0.03128101540770571
0.1346068097254139
0.010122268491490711
-0.04139939442401856
-0.018924294293115068
-0.01564271158792802
0.07222511184153405
0.027464810273154002
-0.004051519550352746
0.020645757389166686
-0.023540724382038317
-0.0020051928072265524
-0.04849011291588165
-0.08141283968500573
0.06343441151316895
0.06309724328834625
-0.05038140472074866
0.03495218590766597
0.07238146991451234
0.08082580671641229
0.07564204825943394
-0.026219688496659406
0.006684665959505633
0.026476274093511633
0.04340956744541275
-0.00543047779592493
-0.06287415047197481
0.020152908703459257
-0.06918541461309398
-0.07777954862907753
0.04799726150467476
-0.0488512551636436
0.001236406336881003
0.025265565065162306
0.08252409664861787
0.03194905446904922
0.16528949285714853
-0.057661635051139117
0.026473655956373472
0.04980740293981353
0.030906557810346742
-0.039359250132397335
0.006779280707941825
-0.03061190776983165
-0.03236526885094431
-0.09955543275351926
0.08536045892493804
0.052452715190928804
0.09292971597420935
0.006828185340093599
-0.06150533205719534
0.043768269955304036
-0.01706076404760767
0.005443918437016162
-0.02274795787864427
-0.040485255207074335
0.030323829185712494
-0.02980504300613375
0.04525657696569153
0.018102107105126178
-0.043662244079981934
0.028366085930003716
-0.045669327173131116
-0.012377182696222996
0.016384758818685032
0.019850485021460224
0.025901574143697703
0.017589394867814304
0.006524911350208128
0.015810950803860524
0.022152413598916728
-0.0014120841074593937
-0.0846667138002976
0.003845532374161003
-0.02689444526096013
0.04342611846077175
-0.025373296125098713
0.051618156425532025
-0.06873185764831133
-0.007621054864811051
-0.047597795273483054
0.03501889954449395
-0.001310280204317949
0.008760174506079637
0.00862310603758458
0.005241213526936267
-0.0258776049548151
-0.11131109735522078
0.09057831870790194
0.008525658843691568
0.12533620212184385
0.542617091543591
0.8733451692555559
0.5146428589602542
0.09088168911190644
-0.003548486090053498
-0.029119093028450796
-0.00255486782266079
-0.04777231154687414
0.04488577289290187
-0.0368270721520439
0.01816919967727628
-0.06932457742724309
-0.09223646921606433
0.04352936038157508
-0.049305172710290474
-0.029276835277682448
-0.08185376319883005
0.018235656941071276
0.08707412712454411
0.013738585701769786
-0.02333929872730521
0.06965526996805727
-0.06462559418797607
0.023812816448388396
0.03831912552590916
-0.01789155927183083
-0.04004759235622453
0.021592298369931963
0.04919366846693986
0.023386567438051065
-0.009482192968423573
0.07055709762379662
-0.023659464717292217
-0.07809080297157231
-0.043132236248383284
-0.02747343068737045
0.01687781633745616
0.10338651848765719
0.0994285291025096
0.0015446167800074314
-0.07323897763322659
0.009871234960367244
-0.013788046671957996
0.02245191595248528
-0.03741309070143085
0.025563783657029632
0.04280436694838164
-0.035881875230118335
-0.11826273535930265
0.07458926130936944
-0.009467358273386968
0.050101216629112856
-0.07087055075737102
0.018050067497068736
-0.0466550115413308
-0.02741834975592595
-0.013625731986493217
-0.03353790908841073
0.07998388181847547
0.08184715919976059
-0.04293804710024686
0.0011240443881294219
0.03919881013996731
0.12518203607281497
0.02398500920328614
-0.018291297901490203
0.00307526858824755
-0.07858819625547231
0.011603899462121581
0.07493698392348973
-0.028552281627708384
0.01695167659579487
0.040650356665894165
-0.01909791646965025
0.026554105507379584
0.10131582166233884
0.12253062955069266
0.05231570116984524
0.045786914295446776
-0.026117468383033512
-0.025663054241118945
0.010837776702760716
0.029982803534692827
-0.005953796738275714
-0.029528961855631915
-0.00386488973063121
-0.08448344425788626
0.035741395875884034
-0.06301822877311251
-0.05013746215578371
0.03159147497729561
-0.03033977947098035
-0.0021693404769884614
0.05532854585351358
-0.12229402324370414
-0.0055982129595759204
-0.03608390459813813
-0.03772095790088906
0.020858123311433715
-0.000499108925638902
-0.11564161410009953
0.055019085233832414
-0.05034978287859169
-0.07477356040287576
0.005118526832058284
-0.010088821261257982
0.027304547676166514
-0.09845533196828674
0.06972098951034049
0.045213710336691144
0.03973133392961545
-0.05039204418691138
-0.012696047500291777
-0.016543693533850497
0.0274122871494571
0.0026836646821921223
0.05826712902988353
-0.040389944020472135
-0.10174308526509478
0.00019295106252822583
0.005664517064085948
-0.01706718376084989
0.011846944917489919
0.03732452191547812
-0.008008220954188915
0.021227435104186516
0.01342687658839869
-0.027008192319399344
0.061160947300624095
0.06672510822658234
-0.0036281792690924953
-0.05852204406862891
-0.05525673582610692
0.07259088776388674
-0.027518746956938307
-0.05725648082632089
-0.0038890003497972026
-0.018081061021788976
-0.0023116297455232724
0.03570356496988616
-0.012252675198231606
0.05324894522028069
-0.035555362700528594
0.010704494871736171
-0.04591306171357862
-0.004131482801391212
0.004702982933222104
0.025662643562502613
-0.03739775651875573
-0.09792433821038093
-0.015209917673771384
0.010015967655304029
0.008145319221536143
0.06307002670120475
-0.0693404969982511
0.05930968509142995
-0.021019606127619796
0.034747086532889236
-0.04458594318113535
0.2096068876028956
0.554423994566789
1.0523485463143398
0.41973912488656356
0.1132306071204585
0.056514012496730784
0.017626111848212056
-0.008957289465268572
-0.04144944368085651
0.048172953990473326
0.009895430242210616
-0.03925888777611479
-0.016585558422395712
-0.019061439459028526
0.0488853978417211
-0.013308248934734394
0.09407265917895047
-0.07274449830899775
-0.02762622227960586
0.040056276037085586
-0.02187963301136876
0.009456830513781697
-0.053537905483403286
-0.05899762366377551
0.0005378497599805873
-0.006117860497581597
0.027026443897084907
0.0507981433306916
0.01721412053075379
-0.06816228663695649
0.09251307782202173
-0.03620555041969408
0.02864211136438252
-0.0017302021921012515
0.06325968833490521
-0.07313582310818717
-0.07199391912024024
0.08196734366313038
-0.05363652349080335
0.008678528101702571
-0.07561913264755482
0.052551375376414716
-0.011091008144041523
0.025439540977872016
-0.04678968599506335
0.01492911141205236
-0.12301486178218274
0.007330008738881479
-0.05554816155076269
0.04703078510136429
0.03125011572571655
-0.04755876830873345
0.0451373124854719
0.054284172512549536
-0.0684881410598333
0.017095815555459436
-0.08846428544413623
-0.02781522923576961
-0.03194032845451063
-0.005937891469563612
-0.007049795268416866
-0.03099812148156558
0.005905087066122621
0.03399386543463565
-0.019548201911342468
-0.03479163990829348
-0.06897536730639946
0.013389432647819466
0.002217503922756556
0.04131379985676703
0.04972440868080775
-0.01565637986575497
-0.09756660039522204
0.009113456410897586
0.05504719063028002
-0.020011552785015155
0.031582480803354594
0.027136155681164717
-0.051410412548424926
0.006595631093132829
0.07790945642000395
-0.08898331634978016
-0.10262992560745153
0.014279596579634353
-0.05694320466020655
-0.11257085345472617
-0.01933812385553352
0.003190983898381213
0.10836202977597571
-0.04497350046753221
0.027788221425304807
0.04129711051998554
0.0024332700481877983
-0.055764247076760365
-0.13904049362610071
0.011805104400528484
0.015085970127051554
0.01171405348080927
-0.05861970916115003
-0.015946286722657493
-0.07721875331743286
0.021836663904856002
-0.013652077222685969
-0.036231993925687
-0.09902814386180121
-0.0438502997238927
0.003381969341808587
-0.030209016007860946
0.13244339102973
-0.10567846887150656
0.01409739184308005
-0.062488364626217645
-0.007951637236127651
0.006856001235697655
-0.0322985246660509
0.0010004939149093977
-0.00761977944374983
0.01875590744881568
-0.008680057632954359
0.03223296268932615
0.013585488813781136
0.015425819709189843
-0.05276068404945159
0.09779499991021227
-0.010541914688191103
0.0010741193007637235
0.11361190211504804
0.054932174981238195
-0.011758077297127975
0.061467270533648144
0.04922952655820585
0.04642572208681929
0.0033889965084477553
-0.03513502794105487
0.004298216400067158
0.0968507685828307
-0.09784160833243223
0.009972466660979737
0.04709567631558072
-0.0012191646429971221
0.006539526320463156
0.06499701994930247
-0.02811473314415043
0.003683218537276712
-0.03101468273886872
0.08990025513850419
0.018960152233107052
0.05558621878242029
0.021504626950303703
0.07667245541760445
-0.05792053736505858
0.04183589835022056
-0.06626494021666816
0.012548328033311405
-0.10697707015886947
-0.04556134724422251
0.026738157286100003
0.05572086527700029
0.03048172355770533
0.47633062766562145
1.0592605383782434
0.5230515235566185
0.11272167766597742
0.03897613645073242
0.004313116959780067
0.04185552919831653
0.046143960839818296
0.04484695605256939
-0.029175252295977908
0.03202514028845298
-0.023605471943903708
0.015267915787211839
0.009256394996323603
0.014135676785128058
-0.05907186226260526
0.03813844119877826
0.025575028679072527
-0.05819676508836208
-0.003699463717512208
-0.11452896485175962
0.018877379561531547
0.057015171257739916
-0.004509548757609952
-0.016995631667333536
0.026441361248461383
0.012085045519380888
-0.04524008351545529
-0.06632215253535118
-0.010777635805678965
-0.0008910083422683213
0.07027373438490495
0.006543152927304049
-0.0059602995523054085
0.014331667813072527
0.0256115609033387
0.101822704018591
0.015255592881494277
-0.06064660667845209
0.05238931541806735
0.0037207332573916396
0.047568769229600495
0.033396007587218716
0.09888949342577504
-0.032166994783471285
0.0760562540478447
-0.037078043296265406
-0.004090344590347437
0.004201838239708262
0.08396094890063284
0.00104298534706575
-0.054019678447884134
0.003297334079577491
0.013118153101382743
-0.01460704817810314
0.051484235157717086
0.013438737979365298
0.04540405995861059
-0.02182116209426787
0.031218619965821637
0.04536286824262444
-0.02858739674924677
0.04642046916292761
-0.03502015684888955
-0.06958736442987067
-0.05303379847717835
-0.08154213519306523
0.01827347124750407
-0.032779225470320056
0.027319144096212403
-0.08130922845013745
-0.016527507572380588
-0.0009750571647344683
0.03801938357451326
-0.06284100444474307
-0.0600142348423357
-0.029061308034417827
0.11578279970742984
0.037532440656419704
-0.03508714175819402
0.008309412331859908
0.00022918539555784713
-0.009973356810842972
-0.012522315430726428
0.0056416510107885195
0.09733113886662417
0.0009948812239550977
0.020833801917528892
-0.12462216315284308
0.028857489726387436
0.04075461348353178
-0.0799817331745784
-0.02943236925573139
-0.011029420284478583
-0.026866652412343924
0.01793754980042148
0.05302802774479656
0.0725248289037437
0.07236530258931873
-0.017068992138617272
-0.050452192514836264
-0.051625239910266935
-0.043403527842252855
-0.01032406816585855
0.03908985302003293
-0.003598186901106306
-0.07070288047427109
0.01131871536262248
-0.02158916884123573
0.04449736628776979
-0.021637563002583706
-0.006814314101668776
0.02914129003643188
-0.0983509274716362
0.03908209309236952
0.028920516900644778
-0.042636787820055234
0.046920549111742725
0.010546682691920809
-0.055764882288513076
-0.04251504451585433
-0.026771096536325492
0.039407792633421874
-0.07749797635383592
0.00027759678594641094
-0.12487904650183386
0.011109226834501995
0.025946625250023204
-0.01905144023480386
0.13390984895053912
0.039447989469233904
0.06921954171774995
0.004270391586328628
-0.00763151587995162
-0.04370631940959232
0.04386129315371186
-0.048713682352610595
-0.02270408454201317
-0.031045080679548094
0.0297151748280029
0.058964729195644675
0.042650052652677156
-0.05891371016151802
0.002248779792362712
0.010018433958298842
-0.07817494825251763
0.006874816961759846
0.011777750111962793
-0.027353074456275186
-0.032341969177642975
-0.021876697677076194
0.04418658036752244
0.06991957289399625
0.5896518187190697
0.9771689191957855
0.45953233595862986
0.0545307521675908
-0.01439899436898235
-0.07165884140001631
0.037671466462586733
-0.04613960343640361
-0.1032341514346703
-0.025110794764820588
0.020214785875850117
0.019705833017918357
-0.02099061726074733
0.07766207443113633
0.018028864500855835
-0.02003463865166146
0.1068539546328346
-0.07784380349359246
0.06789758099231759
-0.037253211493018155
-0.0426440242453751
-0.07267060117860424
-0.08374420395073208
-0.0017783546168881092
0.0017666311517914595
-0.12734999388338428
0.055090988594512696
-0.10001119375672898
0.00957469989601463
0.05192799902266146
-0.016937770927640167
-0.011112487338506985
-0.05994842448089841
-0.07605581138291478
-0.0376554735895598
0.027022362650524212
-0.09623578246432495
-0.02836685922165097
-0.05663517431372009
-0.00125890524007221
0.08179959304046375
0.062452627641979445
-0.08366004322053623
-0.03532611529758301
-0.05251858390785466
-0.05473523451741496
-0.003960666258060569
0.03768602440645307
-0.06721538002667903
-0.08570257830899367
0.030636639209256383
0.09372066412158987
-0.08178287633930653
-0.0018585184794700468
-0.14019064902526632
0.06565056315303212
0.023426772047337736
0.022894074677296726
0.07280319922983791
-0.03471693256551286
-0.035498644627735325
0.006650584961038332
0.002061227698616137
0.0625595013873867
-0.10527545078944081
0.07412088446662717
-0.054109430994165375
-0.018439006711157717
0.08467932926756933
0.13717230725128554
-0.016757792403994175
-0.04458143954023707
0.009220032656850554
0.003540184229789639
-0.07864363333449531
0.04273513610969824
0.018392942383435314
-0.0379030862324383
-0.02867320179042723
0.028491752765012885
0.038391581730979986
0.017880054629982618
-0.04074973892190422
0.03515717477701731
0.007330381606873379
0.018075744322753638
0.0947705836721449
-0.03785306749463298
0.04398591209117557
0.02947320463010978
-0.033111940280106895
0.08053845786938171
-0.01934844042086848
0.060085304932462474
-0.025683713560774105
0.019061558130353293
-0.09162579251377219
-0.039846152490556376
-0.046059152961014205
-0.04193961904828212
0.06377140338403135
0.00863981575431644
0.04524633782670034
0.014476295032747716
-0.005872363640481562
-0.05606295245073321
-0.0503467391358449
0.019939380089214125
0.066494009627026
-0.08319626067433422
-0.022040169236334756
-0.0828798082606078
0.019810103195752663
0.07895652508128947
0.030193707219368666
-0.03527829968465106
0.04405731336264888
-0.007254332989830308
0.09018390558621055
0.037745614909485914
0.03630006078251397
-0.05025060821350516
-0.030476366025670845
0.01458807529761015
-0.044487131604336705
-0.014754090019664818
-0.03456987279964533
0.007108339963300091
0.026828821160989877
0.005811277793480538
-0.013326321075758277
-0.011715417723492171
0.03437029834432389
0.016623568847644078
-0.10109324705450039
-0.006747798342984885
0.03182725673866724
0.018738988832047773
-0.06820976224897755
0.00527174433966896
0.0704491445473246
-0.08950192365773858
0.06150453300107539
-0.011462837462770112
0.017142924740399447
0.026795667569725186
0.02610713680520654
-0.044605360827929444
-0.02026386602135296
-0.02515966906728347
-0.015781154322355957
0.0315821928126037
0.006330756533955838
0.010503220041767444
0.04271312109560826
-0.011003383778775253
-0.03544585894847351
0.04075148504255777
0.007489940453197947
0.0362855906541834
0.11275723133404128
0.4198653618525773
0.9357530831539772
0.578849309443245
0.09113898710385143
0.07877884593410485
0.04736427645997393
-0.012885637628888542
-0.0532085489047744
0.01748102522360834
0.01801389027018949
-0.03307313737743385
-0.05228543047128903
0.02348948344962467
0.013004905290693604
0.037623581905701406
0.029638204443514556
0.07015960442060368
0.006078659686565728
-0.05359740712006276
-0.015054184651359315
0.055457379836405786
-0.050814921884603514
0.0321108669376314
-0.0832033533851065
0.035742826634777354
0.018235320920836778
-0.047066469319537334
-0.0414686752063165
-0.10408811360843562
-0.04288883870206361
0.059612431623394704
-0.017000582993833554
0.027553237943476618
-0.08928294057776326
0.012226541503347928
0.04415365890995409
-0.0162718250841774
-0.0162173359831831
-0.003071565741448523
-0.018286853077838356
0.06551470379630873
0.007060707720343441
0.03542295087500892
0.020645052001146892
-0.018434528258939053
0.004210994267747884
-0.04770381816567188
-0.016562651035499972
0.05155338429867055
-0.05806981474446724
0.11495720952237527
-0.006751078427210386
0.01894156871387092
0.07545263112404788
-0.0500808393013531
-0.004774025692306035
0.03420287513941285
0.00032678006645823696
0.0033212062519791087
0.01370279592215282
0.01257019811028274
0.01444431501958626
0.00960055637982283
0.03264270076920991
-0.06759908219474746
0.013964743580666409
0.07819065218295301
-0.026347364559629657
-0.011517005035070353
-0.06624913153284608
-0.07426634631878046
-0.07732390092027709
0.049425726061257926
-0.024178585696363494
-0.04621157635447708
-0.004606975378744131
-0.006951562279333229
-0.04956635475297712
0.022323908403844427
-0.02051458679806819
0.036878522613659974
-0.01788374540464767
0.045888828058309405
-0.02072377044677975
0.03057798837376885
0.026123054385701356
-0.006836247062408565
0.015685224101971502
0.0003170699300609471
0.027063551460112224
-0.0678351835292014
0.024000396578649885
-0.014145503922966993
0.06221507935035973
0.011411000385031816
-0.0689160865735776
-0.031226682261014778
0.011859456052298751
0.031095281031759493
-0.023035323744252274
0.05504410554063757
0.0326804003691377
-0.0011834109286404
0.024774882772929985
0.05602006580982471
0.042791196152786926
0.006854151392266414
-0.03325313491218579
0.04052137160311577
-0.03942678478482051
-0.09741740011417552
0.004883425473880906
-0.0687192940879355
0.06275271182848023
0.0887844906704328
0.017216715526447154
-0.16693758807307668
0.09393988778080915
0.019858219028693988
0.048154584069970814
0.076859890040482
-0.07094334267203027
0.02835565843654376
0.019735617703307905
-0.04001658175202051
0.060960013166885874
0.00617108881332502
-0.03069223775422717
0.04084144257122467
0.0724651392340896
0.005122898725576889
-0.01715667576034269
0.027939159264216525
-0.004223328141325149
0.07760418680489493
-0.03693654939752244
-0.042507353874943116
0.05124253336065267
-0.002499754105291296
-0.0323297039469712
0.03477406020520143
-0.05104592885265208
0.035637398892885856
-0.026575914179110118
0.018551019600463802
0.0150553991133551
-0.055034159768460544
-0.04857817088488503
-0.055854671593878025
-0.013702249617675941
0.04497749105191246
0.004324056328116202
0.018938385054548396
0.173105681286305
0.5248283885443312
0.9506741802650295
0.4781574434614177
0.14321888097699323
0.028146024484071316
0.04657645709636085
0.009311775503291776
-0.021419746429888493
0.007244203635020416
-0.0012279931983099775
0.05889234164831678
-0.13444837638057386
0.026563187931550564
-0.10597578535308466
-0.013167162252495694
-0.011762654669765064
-0.02487868098254243
0.038499949050547655
0.03175821287098198
-0.012011844017409696
-0.028773388299770178
-0.04391916142784462
-0.041537605707130304
-0.052268390865639475
-0.02659695562834416
0.03914424662730897
-0.02535561164607828
0.00982365677602485
-0.0023158781395624267
-0.030208262925037945
-0.0077902972945732485
-0.048641652574636804
0.015922488814241905
0.027072336850617447
0.043394496127017346
-0.039189910312346234
0.003535336121630424
0.07198909639697647
0.04804336924373875
0.06911012078367397
-0.038875894497910256
0.016526954464209518
0.024072025232048332
-0.04368308798880729
-0.0058908040976112085
-0.04049175549410362
-0.029923001566413615
-0.04830327971845974
0.027030636606867144
-0.061441632953113
-0.007568901483285683
0.001490188709344433
-0.03887421580863695
0.08404918713672195
-0.005840979949895497
0.010981156079993663
0.027613019382397422
-0.0059325266833419816
-0.024943523653798223
0.02263797211777622
-0.028814601612260207
0.06969628082235485
-0.0037104440675361987
-0.0573069758843146
0.0031962780602662316
0.008095955904688206
-0.04813977949792288
-0.06658149739946677
-0.03469544873296639
-0.10608874298056442
-0.005687195942155593
-0.06389423701755502
0.010960285192919991
0.05969085552383784
-0.09598233655314192
-0.011485866977692081
-0.07655507667012708
0.014111966513667805
-0.04576899516528668
-0.026534621473587525
0.046319386737085744
-0.05096520193035125
0.03093242154362602
0.01133862328074727
0.015894608092887008
-0.06439399004525599
-0.05347201698004994
0.04334482138703045
0.08139918301293814
-0.01687924700351961
-0.02606293525332756
0.019479858089072037
0.031233575429010802
-0.040788338729490475
0.03314491388894169
-0.07639633029797502
0.040886536751522144
-0.031192799353067364
-0.042350010158061946
0.02890213062129346
0.076733448859495
0.05693511007365415
-7.948972858346526e-05
0.061384167693024606
0.03932570259140613
0.003008506225728378
0.015819263484599177
-0.02904408256278279
-0.057407340432036706
0.011127180184751331
-0.029930086122434738
-0.11276143758678188
-0.027586139593733395
0.005527154226331165
0.09113775312650943
-0.042094384403804
0.002174997812623588
-0.04773217320429097
-0.04199600833108372
0.0019590367251338435
-0.11518751254362403
0.10953805555473739
0.033114590597806984
-0.11408090926833159
-0.113283122783295
0.046543837073525725
-0.07392885901482565
-0.013526087030206144
0.0033851586232222456
-0.026218417386501935
0.07684321342580486
-0.041521104073352195
-0.051306273743371225
-0.04761446950035965
-0.0436988479328797
0.04728998071036544
0.033747867093353305
-0.12212439712327999
0.07407361066905324
-0.032535125890837645
-0.0532063947384897
0.019011962561325712
0.02905780604391909
-0.02332358918867712
0.03299469458886111
0.02814511263683433
-0.032468684996156565
0.021611855380914577
-0.017362655245680102
0.013259626514397436
0.040838959550307384
-0.058053764482021736
0.011578542818439525
-0.0031068937565794977
0.08354513301768102
0.015797990043390206
-0.006563760363752964
0.009086910820516696
0.06383228769023927
0.48131457706154823
1.0443597552828534
0.46205668720743825
0.1923912762752769
0.053114669478797394
0.0032248720276255023
0.02852018039329049
0.08705246121800815
-0.008121521394585737
0.021702240830415748
-0.0066057865873772855
0.04909772291247297
-0.03619929222027032
0.013772226751124536
0.005836697361693237
-0.059034475404949785
-0.07916507083342368
0.06838403063724167
-0.030346669949883928
-0.06920740304502263
0.0598453295708552
-0.010562707560912708
-0.019225905646847456
-0.05955004696170712
-0.0003085831918703364
0.03342460271129671
-0.009342176783347114
0.003940313471126223
-0.05227295299463422
0.07889166556713098
-0.1021187923884748
0.007576595486124941
0.028619981546956687
0.08927819695206285
-0.0381364119870756
0.023379630235986888
-0.038809222977227116
-0.02702320211238758
0.04459138877389873
0.05895639055416542
0.016784171867828615
0.04777673986077993
-0.04131690013297495
-0.01637032752185689
-0.05161221248026485
0.02249789175265959
-0.054398381644104224
-0.07521826659630855
-0.02787467727065883
-0.009799225268993746
0.03837696658938028
-0.025239982386666828
-0.034151914117487796
-0.004350117303142855
0.056633134791406595
-0.10260106212136273
0.04777295235599766
0.02290333381637215
0.042135366216537073
0.0526359597722425
0.044475835311730195
0.050300741908908334
0.0035497851686913107
0.02866231687394695
-0.09623025629223819
-0.022043337284996963
-0.1038658992642908
0.10471189134717243
0.029754524648974764
0.020699033689190544
0.1204046753643089
-0.042208574115627895
-0.042560607012865515
0.033802540188686635
-0.014472977212242276
-0.05470357092742113
0.07241390749790218
-0.0028728781824541895
0.041224114962352565
-0.06483485287449146
0.07644888332560079
-0.03775302331556185
-0.09524432250439331
-0.02618820353287285
0.05015477401720471
0.03441439587704625
-0.019705585088097135
-0.011031306454675628
-0.09017821674545508
-0.018667977855418634
0.1050156590218738
-0.044765895541075656
0.05308530065069014
-0.03368829239139946
-0.06313214702511781
0.029946873174369927
0.0226604090355782
-0.01631254507161536
-0.04283842036064101
0.07275556832285689
-0.07358547765992669
-0.03520999053577376
-0.031180458068174172
0.041420458905643276
-0.03315573377235892
0.033483999569344794
0.04232735725015624
-0.03871005559075629
0.06086979461131087
-0.008145093205538766
0.016032749556537013
-0.003459512575838231
-0.030070284333408383
0.06864802345774028
-0.029795093949378224
-0.05748836256639242
0.023385372208036596
-0.01566697004747696
-0.05875117821569351
0.019518657573001474
0.07011865520109893
0.006131534426859612
0.04554910479983837
0.07177030787621637
-0.059779356107609954
-0.049485655533443425
0.018050624352291194
-0.0234880125791365
-0.03883471887602383
0.04387915485010255
0.04250440593201965
-0.012023188379471937
0.026311378839547137
-0.029716683427259083
-0.021423420540770413
0.008142864085684248
0.002370557209658967
-0.04573552957568951
-0.006820641247059631
-0.005909562049118139
0.0027583909600114023
-0.001218359551864199
-0.007612135904351285
0.024750690875298496
-0.03870861568705923
-0.05301330120917348
-0.0017416991589677415
0.01270747598361963
-0.0018210619691092942
0.006331817694454025
-0.07514841825106468
0.025507796441999298
-0.07352192837308945
0.10562879420296775
0.48391844929958483
1.0448198968197024
0.4518619442788614
0.11078785042341419
-0.050210249856958
0.09339179488789734
0.0547879816123496
-0.063073312802139
-0.0768067312822947
0.1218976091789003
-0.05948875839415279
0.021515906165262916
0.05448390942042593
-0.089875689386898
-0.010506394276084961
0.008314733916299517
-0.04735041422528351
-0.0022899130985603857
0.07623389169223876
0.016356779941849482
-0.04496633556178398
0.028330536920659802
-0.03745125091190517
0.024688830086768632
-0.00836830397517897
0.013343941251571852
0.012044102268943592
-0.04038640547162952
0.043019263131472314
0.05194527605498689
-0.012785876918549011
-0.01096481353564776
0.019108980271219156
-0.0832536788477996
0.07396223584561432
0.047953399133919355
-0.0014773385024861782
-0.10665128076604913
0.05506529233270033
0.03300329829240373
0.0980395431615429
0.1198518822655234
-0.02956468614971767
0.09056871120592612
0.027981573469194377
0.03374990033741795
-0.040369176384255745
0.023979115787134277
-0.06968052999373457
-0.016374207057403386
-0.015509270172325888
-0.08720717059727881
0.055346361759256335
0.06967207033905254
-0.06532231475483742
-0.08115035370994955
-0.08791624331986227
-0.0336346190137128
0.0931660201718432
-0.026289726982968054
-0.04243565010024303
0.0055074470048884945
0.026986942830610906
0.004646255884969955
0.05261125415738155
-0.04865154214419238
0.01025446058433234
0.01803970154487313
-0.0008016246297542543
0.0884994329929723
-0.0578835114593316
-0.006780657062223913
0.03704170263029404
0.009808446446846081
-0.0529650783042413
-0.00659346369130302
0.08426183775268169
0.04978920969854797
-0.0006717333035040566
-0.07197261268560123
0.020390990017970755
-0.0334218694455287
0.06809471460083409
-0.02983374072887084
0.01809861627650541
0.023314992304174796
-0.0841021762633627
-0.015028277666788848
0.03395872606554321
0.050286349111068974
-0.010991920543237837
-0.05693308715838841
0.02178128263722572
-0.0050476840864418365
0.07697165358336899
-0.1000016597829389
-0.012949978503963528
-0.07275169350654183
-0.014656329151785163
0.020058078175334806
0.07518314346744712
-0.008110682232375495
0.03258006926986644
-0.002968609801396284
0.048685498723871186
-0.014419944810750256
0.006909387454976807
-0.025209237734966
0.02932360762380692
0.04094669496191125
-0.033267494116990114
0.0030391789442948004
-0.033948147557507795
0.022467934874760273
-0.030520551630069503
-0.07524319359768719
-0.001035572516808027
0.019719320474374025
-0.025242508419303512
-0.0958902061425335
-0.02893283638704556
-0.04543330481930371
-0.09016601650516701
0.026497618317871986
0.021506385011139793
0.04210691358089633
-0.08168350502517131
-0.023694192173018994
-0.11729645364547428
-0.01188802536716161
0.0360243044685507
-0.042072634594032175
0.07877236649831265
-0.07133144427068235
-0.004733153712795509
0.0072456844578471895
0.021393156009827153
-0.058835562750613773
0.047268259679433364
0.055026421371744405
-0.015814672154707287
0.012094315148184862
0.050378862904799405
0.029481397186505644
-0.04262896784487902
-0.025599810601489706
-0.04242708890672575
0.009726286366341798
0.07150136272963188
-0.08153926867224448
-0.014562407862479327
0.025187659714059327
-0.010854990959965276
-0.008621437222631501
-0.029609336069495867
0.03333763619828695
0.0921412160581378
0.45997961095478335
1.0927442521545443
0.47804050790185837
0.13896170480066425
-0.12481703589262481
-0.04479403596645264
0.05047792343033896
-0.019765282315324303
0.026880064923438612
-0.029975185103806392
0.05602186655357581
0.06389320980981898
0.031921681768231173
0.021552472845409905
-0.03983193858576766
0.02396470878405509
0.05006691246900016
-0.034621308583885624
0.01662879618277406
0.01882194020585487
-0.013259248354905419
-0.05240789530642673
-0.050283504830473405
0.10042594522995126
-0.1275983867191377
0.009191662932970674
0.024765625035125013
-0.01991153990133696
0.03664054563445001
-0.04917742693396801
0.07008314988985315
-0.021902779961342742
0.016319484938796393
0.007767197331381832
-0.007137256471926691
-0.058822017246180316
-0.029893529486217464
0.03553772755705714
0.07636599004523631
0.0024192687191731625
-0.0683741427788562
0.04808656426419919
0.026360182112977894
-0.004411901292604039
-0.05608362635959505
0.016278789429200576
0.022869079628837427
0.037220581372997885
0.0345631862952218
0.08077092253088639
-0.10892218872965101
0.03282778307149569
-0.029336278388606276
-0.01729624848866375
-0.06736398830883078
0.047748437307624625
0.01043073711599751
-0.06521108527052091
0.012129772584100447
0.007605277263514465
-0.10115855816859909
0.041736213512661255
-0.08286936658950235
0.04584718084236569
-0.062040923370897755
0.00016520284632522348
0.002101041034610268
-0.05508132723966468
0.016545974513226185
-0.029070550637461445
0.009174504142724816
-0.004507609780539189
-0.029478908363270342
-0.005312758511147915
-0.05678534344096192
-0.002883126338551792
0.0598249867441428
0.015173861231160391
0.02321351429865004
-0.04025598041136907
0.032960067001124575
-0.019994874964315453
0.1628794828076826
0.06569510413744327
0.059779450725019605
-0.0698841321353791
-0.09499150767576467
0.0046665407086235134
0.029471251209344518
-0.05081714881164682
-0.016558140238102478
0.04936888474259502
-0.005752423555500097
-0.06846185107814064
0.00761537690524881
-0.054598169446146594
-0.003765504678272049
-0.0003172706575433062
-0.014214165242552505
-0.025340526882244054
-0.015097310720584144
0.027560362427359132
0.021438209480627746
0.0812918740301562
0.002255801219911612
-0.05437110142918988
-0.040407023497632186
-0.03695042508046223
-0.00790447058851674
-0.038885588682131246
-0.0038736911441383786
-0.039740541384880756
-0.023847536871955552
0.032532904145892785
-0.023350254003347257
0.07674820982594313
0.009933532823566961
-0.0035062913065656456
-0.04753933153370921
0.02048965293323933
-0.02623287582165549
-0.023821344161372864
0.05195095638254241
0.013858052583347949
0.0072623507481556415
0.040638181208208224
0.028414021816449475
0.006274937434600814
0.024330328578016407
-0.029343877683815925
-0.011964526450564976
-0.08095928028933728
-0.06012174547698277
0.029931166401801868
0.07804669020365336
-0.03551028590372314
-0.07090947327329042
0.014840004049424925
0.012511022216784504
0.026419362993265277
0.02004525824979265
0.03457704251998708
0.0560968888649413
0.04712753521961977
-0.045376134164820114
0.015326488640226274
0.10758157271568987
-0.0099880889106095
0.017432918594558783
0.03140992579697199
0.031847515727970045
0.0304510790812998
-0.0006472965914017196
-0.017073884444840304
-0.02177394883741966
-0.022973855628236173
0.056849653781414024
0.002687924100714591
-0.04056132015275865
0.04334016389413762
0.5169580765602311
0.9636109291004316
0.5660163789055378
0.1317631548202167
0.001509163218851839
-0.07644044316185598
0.007527759901158571
-0.02103496980346924
-0.0316556057792444
-0.04617883113733549
-0.008616469721602541
-0.04606315836832498
-0.01471861652108702
0.010169644018124153
-0.033704988092529635
0.05244885773719973
0.004572271255480964
0.06768336156371922
-0.04131063572482178
-0.004265850430282748
-0.02703013227461555
-0.028021554080525396
-0.11201073888643852
-0.02852012564077875
-0.058257558348715405
-0.10385081838814539
0.05099062040757542
0.052593502865177943
0.03800160892273765
0.13588040017550088
0.025071612572356725
0.07247063612477632
-0.01912514876458553
-0.027131287980642918
-0.02744976614951604
0.021617543936972957
0.07647145381893891
-0.013948654736632144
0.008365885585763117
-0.10311021560788179
-0.005411760766846112
0.010240133020840396
0.014118772127528073
-0.022639942174160613
0.02875733977052568
-0.14710858450549977
-0.007515345812110001
-0.036137527282667475
-0.09213433200483513
0.0035141201464002542
-0.03411683764563967
0.043673375367998715
-0.004060844915672242
-0.05389393184059998
-0.10535211675430788
0.06364094433260718
-0.08375201272048165
0.06061387908886928
-0.040314537333890225
0.053645626594242074
0.010217882197125848
0.03172304698653483
-0.06773977382412046
0.06440343295542117
-0.06397684618275885
0.03264339653255179
-0.08470733741872567
-0.02059293385884449
-0.021911833969393366
-0.023403013220771512
-0.019878402427199696
0.050254342441536086
0.006910264927530354
0.07720269810009198
-0.06482448022947905
0.0020034689022017794
0.047956893448789124
-0.04146822313794424
0.00491139592722403
0.010503707923816176
0.024562949186754453
-0.04747237057393877
0.021058075063838187
0.049925841338344594
0.05261387334602936
0.09416703765468198
-0.0029259498965483674
0.014555161256330204
0.03902831136707735
-0.028286392310996795
-0.0746482245102067
-0.004712087794767273
0.06709330169987263
0.0681469248010592
-0.045466719450091335
-0.007491314993101697
-0.05890293804148905
0.039169528480914095
0.0245512419622998
0.07208042581105333
0.056796001218116066
-0.03536835778772502
-0.00474459866484836
-0.04002792529098798
-0.0600294206774785
0.025527995082682078
0.004009107806694465
0.004862565233176076
-0.030827787170725363
-0.022038607657167475
-0.051008827242634884
-0.021597079125980762
-0.04142428895854468
-0.027335825408068882
0.06190355194222526
0.041445823033337464
-0.03169315081792885
0.044812310850246055
0.007145667708503562
-0.041633465265333215
-0.021672891475715553
-0.012966777646366652
0.06381196197228309
-0.028371064912864327
0.03796814702612711
-0.0003008423434135175
0.0262249083730284
-0.0031959579443042495
-0.0899574795135375
0.013330062979734825
0.08504667676347552
0.1400504769320556
0.055929105732707554
0.05164673477853299
0.0359029786345856
0.009561572225908054
-0.012313941305886054
0.025913230531069198
-0.07342174056301425
-0.09597061235850801
0.01454973615310205
-0.04331328017330792
0.012788455021173862
0.03777448297423477
0.08166120416993394
0.010264434898978325
-0.026729171836933175
0.08380051590350972
0.06399981604626513
0.023536165992463748
-0.008894540706518966
-0.006227927903645351
-0.08998080417459844
-0.013668738398346697
0.009447343838578414
0.10756422465602283
0.44394274957413077
0.9835309247219505
0.4757888951959584
0.077911554860609
-0.037721759943242394
0.026123751471539426
-0.05319000698334395
0.018411620939904387
-0.028195976335123503
-0.006082704925468876
-0.008180669409974231
-0.05492009590718277
-0.09416914560983632
0.11094054974039463
0.06114042565958869
-0.10318784267764068
-0.007531867779668868
0.11911770720991031
0.029091282742915427
0.02002072375734079
0.08973880846173475
-0.09147305521083009
0.06753663545808447
-0.1193707742807497
-0.0681151932187684
0.014691814862359633
0.04106475778337598
-0.053200709781803274
0.021633227557717932
-0.01343918714470396
-0.022854778952363763
0.025019631073758375
0.001993015059419905
-0.039645978855302945
0.016446026179928366
0.04005511472052526
0.044564894441334914
-0.06712282915784688
-0.044874206343559125
-0.0349477863505873
0.011812104505481643
0.036174528020430065
-0.03166960811086247
0.03500323222284401
-0.00180985172465819
0.017772912138067042
-0.017645439487434585
-0.03081962928395507
0.0504649813890391
-0.09359296335391004
0.12106587433387472
-0.03506235712893022
-0.05248534627963707
0.01862853786524145
0.06476657169336059
-0.05845451822783328
0.05070053838212877
0.07428297438286127
0.022626199798770112
-0.011770242570611574
-0.05814368138459265
0.014729741272733863
-0.09833858723772233
0.009354396816200474
-0.03391201719520077
0.03598208035959073
-0.05581017412999395
-0.009352613118803586
-0.03163110479020532
0.003882905178048674
-0.004315211513047464
-0.053175722437833785
-0.018166693557824635
-0.01111759621780267
0.04194268371305552
0.004474950557670475
0.0855796946056143
0.015542075793592569
-0.021045652005166025
-0.013507914671834279
-0.0008498648186160041
-0.014652115511808832
-0.062077843064970266
-0.04834229105127977
-0.009467456961104357
0.033589654482522276
-0.007101723708436035
-0.08689762211837607
0.08860338184793048
0.013217355635453036
-0.03460494167283514
-0.10145368688130524
-0.028245408352607256
-0.04306727394940338
0.06747260853274308
0.005217703725612005
-0.05582757125580859
0.014486411394737385
-0.008991369474507219
-0.01221166064399845
0.020862751472258762
0.000894539481693381
0.017860061631778997
-0.08391932348580947
0.05739281295757015
-0.01717473199615153
-0.032387003133286615
-0.027918839045375322
-0.02323793916659014
0.0747822760603514
0.09107563754755484
0.097497441684272
0.019302131360182467
-0.012745334918322557
-0.006597737009774324
0.01218720419432585
-0.0405214197422681
0.05603884675405836
0.09870183070543204
0.05738389412944417
0.07007371404206533
0.026790297079023313
-0.08123099446434529
0.02812577594806086
-0.03658373857215964
0.004029021605717785
-0.05172353584128562
0.07851505828353138
-0.005516337386539491
0.044476543439983016
-0.007544785673222746
0.04529124135340613
0.04290082680378761
-0.005068319541797393
0.006179289335713115
0.015465695521159645
-0.05592097489041923
0.020334000416994392
0.006654351053225801
0.025150669862749626
-0.047086232595998256
0.08763162181399631
-0.00899619152557205
0.08869481257804052
0.035109985230827895
0.06223626359730233
-0.0038780569447675823
-0.04656552890508314
0.07161199564202252
-0.05196961340867759
0.1290123664129561
-0.06821160877520131
0.026006129037044197
-0.0007453502507967942
0.07617910381001003
0.5450096287217967
0.9767491048810625
0.5170440532600066
0.07687913990961606
0.012657460071856056
0.013651819872840053
-0.08651183464804452
-0.08454731035312946
-0.11268997344400658
0.015055475875187855
0.09005547617519472
-0.009985398286201035
0.009680419640742465
-0.04675773975196285
-0.08649731713756265
-0.08056961749293902
-0.0655898986106904
-0.024298612401246436
-0.0010683959282024834
0.055130185982212115
0.020704270213525583
-0.08642644620846784
0.004017728490887359
-0.025339490982633744
0.02501662477742383
-0.014869164550705059
0.08010308545305306
-0.023071620661692358
0.006749444152339881
0.010407788239574237
0.06098553857133857
-0.02467054583558981
0.0909799322433342
0.05363861304583213
0.10973230119676279
0.040616829461217585
-0.0303325900629068
-0.009879068732694576
-0.018213507002354357
-0.023918346263695232
0.009118612464456067
-0.024604580232922533
0.020392542021622606
-0.0015425966079334538
-0.04182249801071877
-0.0018394588817880542
0.017512395646875314
0.049197247457957435
-0.08489065339059812
-0.032856555549770156
-0.06341635518610138
-0.004395335405346365
0.06456093471005288
0.03840265091986361
0.06523898816887579
-0.07973453550875748
0.03121853355203126
-0.005039131130425093
-0.04939271008221189
-0.007296188884021976
0.06804561823516714
-0.08945510796905465
-0.06763961066371149
0.007501095586962133
0.07066557068554899
0.034682895948996234
-0.029735019633142613
0.02482183079002055
-0.1337336450177945
0.003530562145225411
-0.017718564063069677
0.02029770424532936
0.036550127733562296
-0.05684854228732546
-0.06959069404414774
-0.042861654492871826
0.04139691693030326
0.09483064119069677
0.06358410049246337
-0.09884604897347607
0.028340884641892407
-0.0006197012357684544
-0.035522033795356255
-0.015722540979118193
-0.042565051502360965
-0.028371120122257988
0.04175810024146626
0.09170549848242202
-0.011386015575640326
-0.04036876235884299
0.08617151063460549
-0.00957930710608172
-0.07913925524270021
0.0007898590267745106
0.03314415834508433
0.012153624962696487
0.017731415551004256
-0.045154128761013185
0.014067496380965062
-0.034486944449168916
0.03449129421071944
-0.033627500322430885
0.032607255315016896
0.022030276492691257
-0.0018641700333286142
-0.08641281201523032
-0.0009573143406217535
0.009574888628614558
0.021981711836732348
-0.0511316535601836
0.0033207065387502056
0.10002812453175006
0.032810056546764214
0.042426765805913924
-0.02358528683168125
0.016612939770912046
0.005935321242938517
-0.0005760758901469821
-0.10313987449144274
0.05166359180661561
0.04684954110945275
0.041357396424459035
0.13486126349194383
-0.004968763851944148
0.07176820783415205
-0.004016788810874174
0.040397002215687476
-0.01681403240055696
0.041269966346314614
-0.03681196843736104
0.1552722395657589
-0.029731367398532167
0.013784544875112931
0.04882740832407299
-0.020893019449056742
-0.001521492821505076
-0.027447181835172196
0.04944724555644359
-0.03901279873943103
-0.0605136352261893
0.06661065589472696
-0.08505089607176182
-0.07540486490141893
0.10629103086348995
0.0835692055551856
0.04278009960834325
-0.009299940451734682
0.10454143408577177
-0.1231519956384638
0.020086679930213937
0.09490135346678526
0.021914201827226205
-0.09324129295905237
0.02398703194033379
-0.004082581088889924
0.09240128556832825
-0.026810671983286266
-0.05508505315799433
-0.012231613911149257
0.061159590872781014
0.03393682668932234
0.5488826666257612
1.0399307005308425
0.40007215328219187
0.10852032065063094
-0.017200421313249042
-0.011019873909852535
-0.008282975096449466
-0.01889428735150124
-0.17525896716867742
0.033762405526598864
0.04176704102649623
0.06856741432399378
0.06051526290688395
-0.021012523904269026
-0.05553650115942185
-0.02571025658398432
-0.015915819154789717
-0.012381356890934928
-0.05203171940995203
-0.019287865686185793
0.023169481200470528
0.09116670061717218
-0.035398563247981116
0.0687643586178631
0.03892085247174266
-0.0017403928110440179
-0.05554380970422199
-0.03688367238609053
-0.08793606851012291
-0.07772637883679501
-0.04612659204305195
0.08083827964729758
-0.0661060949717181
-0.08699868508486577
-0.039957086785798644
0.06958682739322135
0.05453351239896376
0.015200530614987003
-0.02763741332671431
-0.09995408452846223
-0.04562149545449975
-0.017302573621205807
0.10880488685222796
0.009558955666728292
0.02410518346587432
-0.04603150043956648
0.01989535295403412
-0.12551106090124894
-0.16162670606198426
-0.012354659371768856
-0.08417180604506609
-0.01588731726951904
0.025659966753468783
-0.04840073356969985
0.07632700982277923
-0.032805764622805524
0.04769431205513441
0.05514870859021055
-0.06946518531957803
0.07541131020699669
0.024746898446121223
0.003949263434428657
-0.02695564117487384
0.03747379241638431
-0.0064358487958706126
0.042116070760758496
0.012335244155627452
0.026043660786951167
-0.10325001009353237
-0.03116440205777718
-0.002450590537807152
-0.08312635114177991
-0.045156080746071574
-0.03338677729965145
-0.041605629090097795
0.007695705399800305
0.07685892285311546
0.09430636144456397
-0.014570545067392178
-0.08560174828173858
-0.011545176535198362
-0.05724727688897405
0.06936716970108335
0.08979525901647173
0.024379476572493418
-0.022125136999306017
-0.08254485272350576
0.019938360764582316
-0.01954965617634651
0.004567654058380686
0.0517165016826581
-0.01906593064017245
0.05820730909497284
-0.036811560245533725
0.023966939139898478
-0.02995882220969022
0.07369267998143472
-0.012365423058271156
0.005237062348624725
-0.0218768445761697
-0.023339859973879832
-0.043073103963737265
-0.04617178619776734
-0.012158356782905966
-0.003908450416057831
-0.0321224450887787
-0.040357097985708044
-0.008740917081257727
0.15314353738390926
0.10703429073694821
0.0073321266289008875
-0.04987791352329287
0.06503708474785647
-0.00355218991137112
0.031011365323663755
-0.058013746220983514
0.035202921351833005
-0.01885283625937202
0.030281814115398955
0.012775768397935663
-0.03722227964334029
-0.010992904431107972
0.08510149609270055
-0.011607195801928434
0.03533603477813707
0.05582006647766912
-0.06292247780208376
0.016953635725285323
0.09288496655861718
0.09812985989271762
-0.015160282952806301
-0.07615107714416496
-0.055410292342669754
-0.050517187991489854
-0.019018305800196436
0.016242427962828546
-0.018907267535471797
-0.010986609648406222
0.031001389609725524
0.11593401652278518
-0.0335797607970698
0.05992447729776462
0.007071200696842354
-0.07629516012863308
0.08634611032064236
-0.04375927878557764
-0.011415475228377695
0.019848612638663603
0.0023416925198396863
0.0683615421869259
0.09015099870988595
-0.05505184377712877
0.06412918115099235
-0.03431887475074046
0.11472094977064329
0.5814132658959316
0.9469437773929162
0.5190774111271683
0.17187422304792815
-0.05222161978474881
0.11308084135222161
-0.08942052689941818
0.031298405117808674
0.003677093242058619
0.0029800587187804404
-0.0043842998483733875
-0.013580717719502393
-0.016426971605362425
-0.011420015166774135
0.006320731025240363
-0.060828953659777286
0.033141400317134834
0.03836480039914837
-0.005755673990861642
-0.06038926511625056
0.013709255327643262
0.02942933734730696
0.012412973861922976
-0.16206882117971602
0.036920175842032076
0.06730358555070148
-0.027203610684167524
-0.037927845222550466
-0.020682939678312327
0.040701491977843444
-0.03338687572318984
-0.02760378711109311
-0.09202798823722436
0.006000195442872176
-0.0209023764838924
-0.01870958607327112
-0.016262334873197167
-0.08692626861776627
0.051663931369451015
-0.023757016740615533
0.02408567569984115
-0.0018256659434066236
0.11368671067212839
0.03397759012745456
0.020977268835408746
-0.026724057493030737
0.13563437444937496
-0.01903553219350468
-0.06962494346325684
0.001611621717310395
0.06276631359225975
-0.006558313913973476
0.009558084049911719
-0.027436229451715012
0.030642475477654498
0.05950242137085831
-0.030188948651084402
0.0297284111916173
-0.019743593981864687
-0.04967659484018439
0.029512875437018624
-0.034484260640713874
0.03882130495805953
0.008189607292982388
-0.016566582456267864
-0.04588819040456687
0.05801961403713353
0.007618381756576315
0.06472662094741626
0.0040138352116522195
0.021504393993161702
-0.07131511725638306
-0.004828520376048883
0.08924334379127077
-0.039362912902132056
-0.03479575985299089
-0.031175982520765012
0.000716322561348476
-0.049579439805986
-0.018247735929619983
0.00690203381948469
-0.028232396908138054
-0.0920803275018098
0.06702556432462843
0.006484325912880212
0.02422781835227591
0.002263598175513781
-0.013980871469110435
0.046961104399833996
0.09343551774618097
0.039307310341125064
-0.0477349560483371
-0.04719527393002088
-0.010366538494667862
-0.057934456368718246
0.007133091004679297
0.08643099913198606
0.01205726156923094
-0.027566650929491888
-0.018543468356333005
0.0650874128255901
0.06881422122378629
-0.0021690344584056006
-0.06412876731134512
0.05235940666383011
0.09009847396549571
-0.06770886394311797
0.012358603501031407
0.04472845460840874
-0.028600563215763725
-0.041781029190059486
0.08644651679823441
-0.05535215659970995
-0.013732197722246695
-0.020930149515615656
-0.01574991035404036
-0.024302522117474013
-0.07216550266871237
-0.005098820154738703
0.05202483612539566
-0.012749151822339308
0.09452871029550226
-0.022551952877764223
-0.0756344109041924
0.06024969396538184
-0.008339645339811332
-0.0536543064228086
-0.056859123508159595
0.06149075047035875
0.06510574426820052
0.04687522778673861
0.006472628801974807
-0.09868504374821498
0.0026506110371487413
0.029486580512608537
-0.019257747017031014
-0.019390767869012154
-0.033861697219448234
-0.0036160207745560024
0.01725416529759288
-0.06561863891637452
-0.03680789599975836
0.043646255331156916
0.040692807793737434
-0.03767551517721707
-0.01739262750792479
-0.04598123565872254
-0.04666954560266386
0.029161593593591217
-0.038263307901453485
0.01222892036531342
0.07060177731162992
0.03808909707607152
-0.0006040264642945657
0.058890837671857
0.47332168371900735
1.0835005553625305
0.6052193181234391
0.014628679067673109
-0.004075856457660102
0.02410821867953644
-0.07427732053370625
-0.04244067257408604
-0.066245066923082
0.0403959202737866
-0.016415053994031183
0.11388211798534656
0.044819106576890665
0.006788008522638063
-0.02663681881053261
-0.10702069779013974
-0.06624143176104723
-0.011173866348663299
-0.05683387827855574
-0.018733955438405
0.023619573618636695
0.05160492654574165
-0.05090355114825551
-0.032899032226885914
0.03569020002030732
0.054090651773949255
0.02543589568155973
-0.020545975103611887
0.013981484893964538
0.03186481882608597
0.03867877090487628
-0.06328722977798674
-0.027270300405312132
0.016404251082176146
0.06993025733141857
0.015481883452906837
-0.04228047867465874
0.00794488383057122
-0.043360684352192154
0.06504705166400457
-0.010156770022850368
0.03693737716218958
-0.04101134167526277
0.08004708207435121
-0.005572206348353939
-0.0012087198437770747
0.005218357770170813
-0.00961444574400181
0.05600223072643005
0.02333063928091414
-0.11833287153826909
-0.02506996424385774
0.07031919239311238
0.057383789633504746
-0.027915723294410905
-0.04450770042715565
0.02199111318613183
-0.002931264328821001
-0.03401542440459632
-0.05496721845596619
-0.009884480284421474
-0.04587415211381014
-0.016504976334495707
0.10241839368584921
-0.04468125182321108
0.06054318113752952
0.06182670491007084
0.05066428810427397
-0.03610289330122728
-0.025014930919480607
0.08300867384296257
-0.02267066259903413
0.019250768347484914
0.07002989926966284
-0.012448431051338278
-0.008739977335467374
-0.06824365550450424
0.013414827520329842
0.006630085884910102
-0.0812538570829992
-0.0036769090139994113
-0.06871165043134951
-0.013144818118255906
0.031168715700467482
0.013422228470365852
0.051736907044188186
0.050717397640735074
0.007947157235610732
0.018903795031036674
-0.002627938192705549
0.0076616721543970555
0.044475176826779254
0.04883468156223841
-0.06352664956010037
0.05708551351481344
0.03920835563576291
0.03526819337852922
-0.01004348325873128
-0.014861791208205733
0.08889370748559229
0.0830888441272309
-0.018531905795904757
0.022196163883107297
0.008632584286984235
0.014664128899501645
0.005504058353075984
0.05286190165808731
-0.005983625219744335
0.00684580945751563
0.04400077265021484
0.07648101696015148
0.04834300640984024
-0.06603775955599281
0.05074530973649044
-0.07379619417345287
0.02702105117205097
0.09323534271763058
0.02547093300395048
0.02674099053030082
-0.016267235378237068
-0.03750199216315301
0.01935108534420223
-0.017656757608760263
-0.03644938437758668
-0.003181170109710086
-0.03915736065648792
0.026964552985757097
0.059941399538982726
0.13688129483740907
0.07558408191019389
-0.13554743613294445
0.03512958972340252
-0.0033961567225107136
0.04239926689405095
-0.013527878617145293
0.0161287567157468
-0.036180395143817316
-0.013180948548796596
0.0003404542195329345
0.012854714216906447
-0.04904665713969902
0.013930698771942454
-0.07940792475725254
0.012837364296354667
0.01930892440658445
0.006013445083020374
-0.07462917077005682
-0.0492170949227616
-0.0327224077831155
-0.052780076879300024
0.040657368187043644
-0.036766985811830286
-0.11250378809887823
0.08017357730685588
0.006404584635463434
0.06315047488728265
0.01134179918552803
-0.04156096911427851
0.1266417567930491
0.4928656996990493
0.9700616401747706
0.44550099683172534
0.055229563177819324
0.06578946570414107
0.04501209307424137
0.013528842433667069
0.007141717543298471
-0.01956045406165341
0.06726959041276342
-0.06924282642396613
-0.07672606854310621
-0.0008902552751550301
-0.024492105753606098
0.01385264382402999
0.008560341784522306
-0.02776856331386919
-0.020881122855506376
0.011819399124317356
0.0005034496745394541
-0.011728067020568838
-0.012862082670578048
0.012971927776842439
-0.03675067217058997
0.04525519986302363
-0.0006453273968980289
0.05600623431543025
-0.07663806470998863
-0.06543400044623858
-0.006493322024877664
-0.011247122306647131
-0.04169351173093943
0.0533236501222461
-0.001414082153491163
-0.010495638756713435
-0.04158019672719758
-0.025359383339465847
0.02956137256725281
0.012456149711789332
0.05893097853793986
0.06677484062967916
0.0210525547097831
-0.014500310332353553
-0.08677594026232038
0.07476525654623344
0.02687964919894706
0.016669868822586257
0.01692532124531126
0.05832544952657209
-0.05733080693130114
-0.060663902115110205
0.03297379805216163
-0.009824251222278263
0.04827042713160184
-0.012114688984403358
0.07761082883582644
0.010986129663400304
0.017521896544595624
-0.00345291434373494
-0.016524278703628933
0.01767613366702563
-0.09283409206713615
-0.041135571291882514
-0.05653245591184099
-0.01578173808581783
0.0017001005465464758
-0.07461412093553173
0.021151090535887984
0.004858712335910727
-0.050222558374408866
-0.024587255749242157
0.07167415192919782
-0.002667049355813975
0.0032075089073891985
-0.03644231046468047
0.009938086807535274
0.03827656452385808
0.02496187773986297
-0.04694458363184823
-0.01354112792203443
-0.019545922125056334
-0.04393322337831021
0.029849138644629042
0.02409784592410137
0.020810906608901048
-0.03773360572858952
-0.01753713829433524
0.02065426006234017
-0.03252612081857185
-0.0460352980526294
-0.001268838288938224
-0.05099132634408528
-0.038962291695424194
0.018449569219799795
-0.02387581251799883
0.03446708254787446
-0.0006671169707892998
-0.040859240643768
0.041553467127989685
-0.017327866301731092
0.03129204251413775
0.041319411722489735
-0.00015488643357672438
-0.014097559790054566
0.012467500099498909
0.03483685141865747
0.04211637386076276
-0.049954378645284604
-0.08843298746762761
-0.06763086869594116
0.032659608811254334
-0.016768239096300184
-0.02397344661891048
0.02786135624190525
0.0034553635227248473
0.03199306941407812
0.012710727364909727
0.027186767996801798
-0.11145123744547421
-0.013782560665232533
-0.05125092824938157
-0.048917914062940604
-0.006229910160105911
-0.03853927480612207
-0.009076282370527431
-0.041623149091785876
0.07178418960762312
0.004711058990667854
-0.0002628659247509165
-0.021336647067060968
-0.061179357851763275
-0.009527523183773434
0.11348720899784935
0.008745994054279473
-0.005573128278087615
0.06032464720722919
0.08202894781187553
-0.002254899736021564
-0.0037680964844602587
-0.006266177714984306
-0.03229216183621009
0.002253984593065812
0.019375766211737044
0.004436115344530526
-0.0007023463275052488
0.05501150655114139
-0.007798427187262449
0.05249253185772171
0.07371098996835466
-0.0562676873742364
0.07181715437545047
-0.009896156372526048
0.02825063407649004
-0.030461617998864817
-0.030510647117430723
0.01961935086783753
0.4136649387732554
0.9954787262008602
0.4866528298711006
0.16702603422303092
0.0033763679932883837
-0.020915011070465547
-0.060997398120864535
0.02268051684426292
0.06547712998033597
0.05764804979679997
-0.002875685601192482
-0.0024201194785987575
0.080537575165033
-0.017971776329782984
0.02055534424674247
0.0015297958235037786
-0.0009658341720168083
-0.006838515543955419
0.028449372023130266
-0.05704389797133563
-0.017992302774899722
0.05067440172635999
-0.08267260525161699
0.05481696867970942
-0.0071587156931958995
0.055064179316706964
-0.04216743549462359
0.010366144954284666
0.02450524536853077
0.013197918288731379
-0.028146392101029923
-0.008538425553392532
0.012728946325812555
0.022511067651938832
0.04018650437213282
0.019459134916264748
-0.06974962299744845
0.005219408335670151
0.10218194036452699
-0.05095367217451391
0.0581547400257624
-0.026860826860234707
-0.08649475116914873
-0.05749124475077108
0.05795562927253059
0.053198647426450245
0.040955364323325166
0.01761527571774385
0.07594152776975827
-0.00664886916993333
0.06860644127309544
-0.04070230483021358
-0.019729393201663246
0.006008736662003161
0.07788897688498579
0.044287681193678596
0.013348712144839903
-0.007255128946723212
0.08126785787949233
-0.09154992588460645
0.012212907317602948
0.11006769595389775
-0.05557111249992283
0.12828170580531842
0.040361877176754817
0.06550242222103135
0.010660005684282582
0.08603556834667632
0.03098350253980265
0.028589430195343053
0.01783512281126352
-0.018364395434104872
0.10378154698220761
0.012046015607299926
-0.010884357675385507
-0.04350938930581866
-0.03710617485374175
-0.07240174246731178
-0.01723665607565988
-0.06459984744304503
0.04924628640237541
-0.06510161180401698
-0.018870826954703844
0.045441803270047675
0.06525525594648972
0.024732143224572876
0.04787354441693619
-0.009802659899908644
-0.03076451267797259
-0.03030485473513806
0.054076131868561333
0.02847763474865317
-0.0010631289221480203
0.04136765719349477
0.02146925503402313
-0.047817324292624266
-0.033826663785556814
0.022705538915679196
-0.0422015099041301
-0.02243371615312723
-0.009728423655411747
-0.06913148755022096
-0.05288451358637039
0.0023915734471674378
-0.03308770846964413
-0.04812702576487693
-0.08906444754080886
0.08300950842142826
-0.04408899454785054
0.015790640306618652
-0.05118192242552684
0.0036766867121446004
0.02357310189990293
0.037498853706081386
0.027240565274937463
0.06876907631182248
-0.053372632976611004
0.007673480359087372
-0.04673801849320055
-0.06526641675003009
0.08359827190102545
0.04355823001985734
-0.027771714691775442
0.0799728700414373
-0.037464324958166824
-0.00439487342896796
-0.034487950514512
-0.00789258833500289
-0.07266964039952598
0.008069842968311996
-0.012594290255887392
-0.02638070612076873
-0.036870796452809
0.0541530311781523
0.024748827631339718
-0.028759441797540548
-0.022665696784187783
-0.034116578707729765
0.004998683934528905
-0.0033402673919823026
0.07504557303616152
-0.03279192158171867
0.006219452496065526
0.002697403410883047
0.017665860815970578
0.03464862998380857
0.019375747732492125
-0.007659008002966461
0.0025162388971372573
0.0020401921120402618
0.013419869804712638
0.02225557622867966
0.06389528404486228
-0.011972831048712412
0.09933103607889991
0.020297834533048648
0.033103848413423564
-0.0005008952547902299
0.036151254000704194
0.47003220689825354
1.0051774482209586
0.4443446463969842
0.05144324054732356
-0.03624809884811856
-0.00418591172076365
-0.08877938837479898
-0.15427795437615344
0.042824683605262794
0.016257145801815573
-0.03265764270205381
-0.0032091634846991898
-0.024507882261160862
-0.06893616680993839
0.0063744931681004886
-0.00014091592097033575
-0.06703224188056837
-0.026121395291382934
-0.012150657061275705
0.08940321539388056
0.0053141879003672276
-0.08321950711006129
-0.10197826486737611
-0.0024506514275202487
0.023251467960696638
0.04093071815909926
-0.10391962990454158
-0.0024448837706936544
0.04380958404888289
-0.08391321603574893
-0.09338532496420643
0.07521805617560728
0.0805127761654359
-0.0905508492451713
0.044445800788790235
0.060805817834642555
-0.04954721458573957
-0.060373963058875796
0.034480366784219056
0.013175393454694729
-0.0028431232058829703
-0.14551101921908635
0.05207664007588633
0.05121203348558047
0.0029442523707111992
0.05972993816193989
0.015086378513231522
-0.05414027539661647
0.032540660017612265
0.014515055022893162
0.04370820098334188
0.02857473852565623
-0.012127555408968878
0.04961502498177535
0.022515946359802023
0.06626990379457674
0.020982285883577957
-0.027816039258373105
-0.02305293702318162
-0.01125931570825879
-0.032728971295950156
0.01646388607889974
-0.04332024571657324
-0.023021439163801203
-0.00803156394691577
0.042621352177452713
-0.040086913665489755
-0.03787554442198464
-0.048467855172524235
-0.03063819370704972
0.03267241516038675
-0.04626126626637279
0.05764611459443417
-0.0007231517335295542
0.04422893997621065
0.001490422326653415
0.015724691490422785
0.013247290894030173
-0.030453457988080204
0.055863057211831504
0.07925973851833873
-0.04264380073525784
0.0643719862423409
0.02258627509243853
-0.016104035457663857
-0.015782448770586068
-0.03952311952010905
-0.045527843272712004
-0.025024221111538833
-0.049131781095457454
-0.02921867382878939
-0.018393794015843932
0.08751108141473414
-0.03695124111291228
-0.049346714372016896
0.03638138045933451
-0.14610133611249318
-0.05138910900085617
0.008117453202723007
0.030467934497801455
0.03888198342003529
0.019361724352049265
0.07178626508865099
0.01649800148724585
0.029122639528257423
0.013687679902351714
0.03295322568803642
0.04174955368879102
0.052210768645538176
0.06148465916068357
0.039495786614045396
-0.08841078988112
-0.030854925482357395
0.008810819491589739
-0.0323703475573865
-0.0012839903001642728
0.013632804346496906
-0.058896463025363804
-0.07066208166240444
0.06236712243174445
0.04294787999581215
0.03133706979395002
0.059214495070898036
-0.019434141345339464
0.03348885657985016
0.03949177241427682
0.010477137345275353
-0.0427019255017288
-0.0512738418254716
-0.009058121889520716
-0.0287096312695311
0.02657837763874046
0.08927940110251784
0.013657829976280603
-0.047833205345329824
0.1055117326560232
0.05001672424001422
0.002294307734584069
0.03724315612440071
-0.06012120760255423
-0.03181326322366003
-0.042204311386796006
0.0023542012238771297
0.032326414572748874
0.03211274447844432
-0.022014285222193508
0.051860838849590675
-0.11729911870608956
0.011145977834865137
-0.0009888043974132668
0.07140743233092331
0.03393096214109194
0.03290979335188881
0.10224795861207624
0.009726276040611175
0.0760903706670371
0.005623437602899414
0.02755326307857551
0.06577994882953145
0.5000588334586963
0.9892458300230443
0.5101397312409408
0.02817037870592068
-0.046487721402183525
0.042219174366637344
0.0491677620432408
-0.025718777584737874
-0.0315420195491847
0.08688960863510375
0.04189576645887297
-0.00365955272689608
-0.041803070407718426
0.0036360276558314478
0.007910544702081863
0.04668118794590265
-0.05854314941814696
-0.014957520249987703
-0.00882252046423222
0.009952815543585672
0.09956635733845913
0.006912085710669153
-0.025004184211955535
0.0478305449594654
-0.0008210286138016454
-0.03459802825124098
-0.1236205416033676
-0.04735574267500761
-0.04490932182721887
-0.019636041325395162
-0.03006891131895999
-0.10157418940794188
0.11394362264029256
-0.05484914121577187
0.007210439267398565
0.0335612601822666
-0.056478844575181354
0.026687140902672442
-0.0952232362048482
-0.018264182941953463
0.038779446908769395
0.02238290912877498
-0.0011225002382712465
0.024008884493330888
0.056290074155282824
0.011324610107970368
-0.04683073991374183
0.05098954307962768
0.004921907376228617
-0.024777216921788348
0.011210970165104854
0.03298496315956457
0.03192808442620691
0.09026317764319057
-0.0271061997065788
-0.11342204524145368
-0.0642391446064978
-0.01919082680819957
-0.04337603601242335
-0.022047382197223235
-0.013768859736268013
0.08217721049093768
-0.028735479333258852
0.03850788486608711
0.05892398790411657
0.08747155120554405
-0.0639832625077105
-0.01515827030589066
0.05373492001501606
-0.007149578944721785
-0.048608967165214116
0.012925842854973736
-0.03444799717167379
-0.028755037575102244
-0.01609233775481547
0.015351078092575672
-0.000321987889532341
0.05309182123067912
-0.008463733634903324
-0.04353245251283036
-0.03140825121645572
0.004514090563205856
0.07606663167042407
0.06836784654414964
0.014781764746239063
-0.010458702506919822
0.04663907906883602
0.05581115305462123
-0.02700935662866523
-0.0011738185720772867
-0.03183991718464375
0.013315145107480353
-0.07691457418031228
-0.020495367400937825
0.03911564814279187
-0.10639468319897204
0.05612924750249017
0.011061681113002543
0.010395329805582896
-0.024966673393489732
-0.01965027457546368
0.03360531603597548
-0.031091961242580804
-0.05108954538746292
-0.04903480862819725
-0.009437362504095896
-0.004103259630099365
-0.04610066909491537
0.05915245624808646
0.0318407108535682
-0.01854111192691887
-0.04075514063653684
-0.026161108797742527
-0.0227798431556905
0.011168135664006268
-0.035896811107077965
-0.0975993253115011
-0.04044083026269629
0.04148072138638685
0.04711754766976658
-0.008455277334324987
0.04855570377651706
-0.06816165853468391
-0.10161226917204824
0.0030896841476342565
0.011094107064382033
-0.060802705639400594
0.12321626942913409
-0.033531123476678026
0.001380507033576572
0.09994958938967485
-0.08239474023239851
-0.0062726114806092555
0.03635533285413083
-0.0425039510005155
0.03841233733104818
-0.039315761134735006
-0.08794663385552182
-0.11718765283255841
0.01835042492378709
0.043786438456200644
-0.042449636960487036
0.013874392715146866
-0.047090448580668125
-0.09716897533472257
0.1185265151407857
0.04732617320541099
-0.004097282800591138
0.047274375225345965
0.025132274873915096
0.006315523075807768
0.08356553325174988
0.4358137943580994
1.0303766129584333
0.3920672843561096
0.10840622855040016
-0.003970641055326958
0.07895703463574211
-0.028799500641924082
-0.0009189621158240205
-0.005635252105225379
-0.04244227076481533
0.059203300539848305
0.024590306622949767
-0.0094125426251453
0.014010298095302449
0.028830474175248623
0.010418604945204064
-0.0035886308859877265
-0.0072797460497596
-0.0030788526842183365
-0.006501998260026658
0.060520876231285374
0.03910211826669729
0.017590682441852284
-0.032729905620783775
0.13580595589292213
-0.020612069292657745
-0.06471652753620961
0.052863482096048665
-0.027969880843308276
-0.0004889519840458229
-0.0368340184803805
0.05062307120544838
0.0014884340711585021
-0.011948185152520031
-0.0012882590747513257
0.06350688903365174
-0.013213951375047507
0.06066350453154762
0.028589232463434013
-0.02578818902256255
-0.11740194529069665
0.05550250846858521
-0.03532586897463073
-0.009534447279974094
-0.03141211156618423
-0.018038288067878928
-0.031637995597386843
0.06998064147538216
0.05181341384433245
0.006435728459590832
0.03269361591334936
-0.042684332538820466
0.00879322228616058
-0.002326849203872041
-0.0022254008772441968
0.06965066116082023
-0.03330794982232713
0.0308173320779862
0.049811907184047925
-0.09190962926251349
-0.04602142173046022
0.07596007343508569
-0.09132330192414168
0.05268509696117556
0.02233885016624876
0.08876520292730944
-0.0726959040676096
-0.031545391221304925
-0.12392894745897545
0.033945444838303244
-0.07474714249865076
-0.05695404687324368
-0.02255691301515057
-0.0394559920419833
-0.07707198037951446
0.07364473471673603
-0.04360441896064029
0.009680852016722481
0.04801598244551753
0.032615465326956826
0.05974253614670762
0.07127755741177205
-0.04841970403025873
0.0734421240312914
-0.01729007716114447
-0.04012202564661263
0.03322346754043969
-0.06863360483575168
0.002030481981547989
0.003035378147987166
0.015420730315555214
0.04111351582768219
0.06541088780348216
-0.024166640901222516
0.004928196818462256
-0.034188972737495486
0.04538293747871572
-0.060236233618126016
-0.007608623658145724
-0.046891498689541095
-0.021639305441219225
-0.051538876528322966
0.03288085288976984
0.015458450097451221
-0.0661929185100497
0.018545509774669466
0.0055280433149455105
0.04570973417614182
0.03098994118119382
-0.04167374324460224
0.026959095409395208
0.0036678384923189925
0.0380229987372388
-0.05628308885917837
-0.0851467288508927
-0.003202570144145646
0.07286873948497993
-0.025840540011078092
0.03284395817832617
0.016408994392888773
-0.027720220556436664
0.025659813061764066
-0.037461698415937085
0.04199999913494828
0.0710009315121874
0.045058126270553805
0.07348947014429057
-0.03736473873869577
-0.050542662118987315
0.06341319308948677
-0.01304970434981232
-0.012335068119699361
0.053112156389729506
0.09022920529207473
-0.05266009255109473
0.03289493512734946
0.0592364522333412
-0.042525372785723124
0.0009602292334454848
-0.00916177215146525
-0.14242084489170778
0.10132946610584426
0.005335336862101078
-0.04080464489856943
0.04327646367980781
0.009968899351942638
-0.048352088044600755
0.0007221031568599665
-0.008426980672835436
0.007173651417880754
-0.041805471180519124
-0.00017075344429623958
-0.025242589716564297
-0.028827828500086767
-0.027344059632242453
-0.025182538716493938
0.11447352130351546
0.47966180718492035
1.0110111456511786
0.5474937181571569
-0.013916056672400298
0.05716686388163931
0.09006510624124378
0.038570954184589175
0.02108571985562563
-0.017735722179567377
0.0564002633277804
-0.03164402767108316
-0.001046012466128235
0.08162218653268973
0.05116042452567776
-0.03455527789302788
0.013799646721340134
-0.022117116867015788
-0.0202808639180838
0.03944994631774433
0.006826310978749556
-0.07422989506846167
-0.00806074674850624
0.027350305621282836
0.10101809980637354
0.070207037938926
-0.06734438779382478
0.010982629730602902
0.012783702901442637
0.04148480144347655
-0.05099991320197511
-0.11509622864039569
-0.044665631789017245
0.010364161100506778
-0.05581863005557585
-0.034532383066111554
-0.0013422823577997592
-0.008336708736681065
0.018032305073470173
-0.01889323301330754
0.020342833623357367
-0.06848908596948367
-0.026101886699263856
0.037616260268902246
-0.028076586336457106
-0.019889371322305865
-0.03796887972884626
-0.0445201050325937
-0.031525634595115905
0.007909593406377306
0.10047154150626852
0.006215905630660843
0.03538243165666762
0.030418876710840412
-0.05046175329959995
-0.03283141288227834
-0.021721843126569936
0.06377072610588504
-0.06563238625055891
-0.10064008390654203
-0.12180088262003784
0.014750918846382492
-0.04872431195293769
-0.07610346593450917
0.04072688379763301
-0.004415450299730854
0.028762205739028997
-0.11323961213456953
0.09393490147584366
0.014216216153405221
0.07841495221107775
0.012930925126491367
-0.00048041307286056985
-0.01447908446888943
-0.026904392381262507
0.04980357426768499
-0.04516101125714512
-0.005401375513427821
0.03077319753295875
0.038493187853753164
0.05249684662408043
0.03528581435038707
0.08074644069174905
0.03243632388591762
0.019355783612659345
0.07084829258334162
0.006437409989895768
0.03198878317557539
0.03424463207464922
0.0031244701635461153
-0.10013632245630188
-0.06681837547625388
-0.04888611589609992
-0.02619393420966511
-0.029464344547390622
0.07706470535780635
-0.01849044407731505
-0.019437181965670285
0.020030162764463247
-0.023778789336787686
0.009461190625320496
-0.07162597692721165
-0.009837805098304377
0.010971484885151333
-0.020250191765581512
0.0212919247052442
0.09237780081132026
-0.028902958919855407
0.05134042009998947
-0.015653368986576658
-0.04354598512538534
-0.062433515700311096
0.007404310121387616
-0.06970240317604846
-0.10408161337608907
0.019096874079883218
-0.040928420510693696
0.086773328461105
-0.0038021961457172654
-0.056115986490316405
-0.00448946671151442
-0.04932649335576166
-0.008908591245256335
-0.01682346520599471
0.04060000828849803
-0.002429919344190182
0.052553686189892534
-0.012361647610344176
-0.055423656838420876
-0.014651806970708335
-0.005763643072129471
-0.023862406064672406
0.017605461814808772
-0.046446777579165925
0.0005811426747846754
0.023491757133673182
-0.004997026332075003
0.05116879025455891
0.06934339706815522
0.015497576339160244
-0.009899333290782028
-0.041994222931283895
0.02947738363233515
-0.034402460649940035
-0.024785326453533735
-0.06452762539917127
-0.02586642844535115
0.10129946810769713
-0.06812897422622964
0.13214101781306
-0.06782563915916409
0.05516610461889815
-0.01066180292410051
-0.052249658575322135
0.09332077005148189
0.01735634457767262
-0.10557935677430393
0.07364021302659347
0.5389746055757382
0.9875689784333107
0.47695617266066803
0.06948933613642118
-0.057940180670019284
-0.007626137726353392
-0.022362007092406155
-0.0030080437147049256
0.0945362512324348
-0.009708005477314173
-0.040158448448627246
0.018270900119318634
-0.058786179465017664
0.005637292940480668
-0.010618522348619047
-0.13837021130854843
-0.012642023218022758
0.06051233032576162
-0.0010943938614539571
0.008511324648377032
0.0794446107913165
0.08840179931102794
0.03050874918645474
-0.049041011355213444
-0.00400441257254473
0.011871828390107274
0.07785569533220782
-0.002547424164769314
-0.08499592576463649
-0.015685272435415825
0.008481123928037904
0.03579970619721993
-0.009479879455038911
-0.016785893218334177
-0.042364156966542436
0.08901087810813553
0.014170260652722975
-0.009678295855162972
0.10503223193083851
0.10413414538930438
-0.012283483146030491
-0.02909017858301471
-0.0287962177265082
0.03621074708224336
0.06404722495921758
-0.008597812238029688
0.043658474082705956
-0.001636965134393934
0.014941751661891201
0.03225806282917529
0.04206907188705397
0.01768930143829059
0.07826232750660873
-0.038846944331549574
0.015673451732777854
-0.08180283402149816
0.054987649095433314
-0.04825234607262614
0.015898250846574324
-0.05919397064920276
0.03104714737333481
-0.022745562622279867
-0.05741083444129383
-0.0005767444740162985
0.05614403942450557
-0.09429260564101259
0.04267116196598611
0.004837486554997571
0.04265660856852517
-0.0003488245797452164
-0.07478886165778519
0.00015904348250245646
0.03712532319747891
0.08514177788946214
0.07528550210641945
0.011795286927738643
-0.05416614062363802
0.05491119132512963
-0.028044239396323008
-0.0068667782406218935
-0.035618636565150415
-0.00702329044563299
-0.012666965210792464
-0.029811144135439494
-0.04091601563094259
0.03058235321222746
-0.07398008384219705
0.032457567425405835
-0.03504432514400265
0.13847873635626418
0.021793705441487538
-0.07093741679929723
-0.033594747976309375
0.01994281667417393
0.011590768138887906
-0.1115007674465322
-0.03954445823180716
-0.0423864323973667
-0.025743588594762556
0.00028846490812044575
0.021517582428501224
0.0370103857946607
-0.02349436362836337
-0.01913277015651617
-0.08064960439604757
-0.005842482371594373
-0.024545192443933436
-0.022394364369431104
-0.0886877843182022
-0.026641003219189857
0.11197914976789516
-0.01764728240631934
0.06424428570047187
-0.03337653834853485
0.008233060978986368
-0.07052450605167375
-0.06392738857234857
-0.030377351566892266
-0.009547250065270461
-0.02255226440890571
0.01033004364492244
-0.003761270005174816
-0.006545737629316999
-0.021613357933190972
-0.04695012994481677
0.06108394216168598
-0.03289504759680758
0.019345818831353744
0.03470523598334461
0.08907545007157806
0.06604064456872033
0.010532996647017115
-0.05809469148196437
0.004887056378207386
-0.04383749581271734
-0.07153324054469838
-0.011621332593273534
0.02800463373528238
-0.00663506987395319
0.010195117295661683
0.0327588340958477
-0.03393558784056192
0.06674445890292217
-0.005591666452558059
-0.04795859497080027
-0.013900343859523951
0.06417610937030892
-0.11419386281095328
0.016964330542847655
-0.0799565959324404
0.06803741677149196
0.07287807678413176
0.021911337606987723
-0.017911603945592096
0.00708004669200359
0.024774977726311452
-0.048945795409045985
0.0316295046144652
0.027050588237287305
-0.0170942748567032
0.5000610190630012
1.018379592218261
0.5484558194121537
0.1586105570484112
0.01941285251691508
-0.004761042407635101
-0.03970880431745022
0.06511963402053692
0.007174742781789247
-0.07071645596020769
-0.03840964450484423
-0.04850995000035569
-0.0665112641910932
0.005435697141685474
-0.02232171474036974
-0.10033251536847379
-0.011814035556528898
-0.00035372303802796675
-0.019636559071831493
-0.05466807790259244
-0.027907921239519726
0.03219873653897619
0.0325701557627988
-0.05463493060442668
0.03657768594554333
-0.021520065142649505
0.050092743740994865
0.026278809687585954
-0.0019767900374914145
-0.0671864986341522
0.00830361828185133
0.0008760920457219076
0.024297217385724473
0.05883152541208843
0.01900320517729842
-0.03899600244481054
0.028066021499512612
-0.007588596318412286
0.02087889660253861
0.050101109902449925
-0.05349614254379588
0.10325951681689134
-0.05225901109688605
0.0635647048610183
-0.14199167598251533
-0.04519551973211772
-0.054754354313600755
-0.04914414216024971
-0.02449564637406393
0.003061260741535422
0.07239159959525875
0.03083294107346664
-0.05090042358236433
-0.018335128012723467
0.0018834386402728342
0.032840246786201774
0.019947872783037977
0.008477891972208535
-0.03786234668887808
-0.016465350696049694
0.038292189834729554
0.06612996635825447
0.07561097965505895
0.01671018563026998
-0.10521894547191746
-0.03010717092092363
0.00265124249059468
-0.09717134738622657
0.004100794472389314
-0.0605028222015641
0.02360799248764472
0.09938452639233175
0.05033020285448673
-0.012645662542092399
-0.012958243896356287
-0.032353660001755415
-0.01730254647632302
0.04532643961519617
-0.022493629928506148
0.017503719455373375
0.042540445082269764
0.09444440158672673
-0.03373354849559187
-0.053734537311797684
0.08269983845209611
-0.03084989869106554
0.022699815273950395
0.04263167965592321
-0.05157222912745022
0.06881052941188466
-0.0897545759724132
0.016720516556040114
-0.01739952962030687
-0.05708082830452702
-0.010950441232510148
0.043457762955708634
-0.038785778988392
0.002354663568830045
-0.056782726167178645
0.0241017005599536
-0.025348265523543075
-0.05602557789901298
-0.05935426336429646
0.01927502692779202
-0.04032734117106268
-0.003189523773965368
-0.020832518383478393
-0.0028285571065719117
-0.04909521267424209
-0.0009315839472690494
0.010440511512221917
-0.042618217703089815
0.020412247982955878
0.056984932674805144
0.053742480273232834
-0.0028024861599914024
-0.013518036275701148
0.046660720205642596
0.08267385194682016
-0.116097708325385
0.030985085334555865
0.051348061537192825
0.10500469425891412
0.02759587905198457
0.03551061937252354
0.04585208002760183
0.04175061380552519
-0.028695771632051045
0.07395692562210487
-0.107164004880121
-0.007767087783446931
0.006619517224257528
0.017772199744446698
-0.006086862871669491
0.11004296241840168
0.051127251501529726
-0.04825827007944069
0.07760775176399268
0.03848722712154276
0.005822877688930953
-0.05737088771362934
0.12424560271908046
0.021448206391914002
-0.08560180989145154
-0.14339461364767347
0.0586496428413721
-0.10321658622862791
-0.026799067912080678
-0.1333195612241899
-0.009513723075041034
0.060419325711324405
-0.06491589561050447
0.08093951383439833
-0.03051522649924536
0.21985935624687192
0.5275140909546925
1.0048807307947971
0.4994227472006433
0.13563740589739232
-0.06800792076839464
0.008493802812640276
-0.05539114292622586
-0.004895621300144127
-0.019490003634105888
-0.06246661020612885
-0.03188251788211217
-0.05031174745712104
0.003779224929069661
-0.03967203008392279
-0.022592188723880552
0.0209926434846584
-0.003348870099139662
0.0017961987635966602
0.021768065383897545
-0.04068692061916657
0.060163547820178846
0.05621005811413315
0.049610087470557035
0.0727430926302693
0.01658557301453038
0.03938528759535778
0.01779376124249481
-0.010713467227425309
0.05114814397338666
-0.015047836032866857
-0.005567005410761997
0.010636873781802485
0.08107829771175736
0.03457836281949443
0.011708781041239277
0.004506877397710644
0.00046286000307520757
-0.014684542824959738
-0.013370315563428978
0.020004499177477736
-0.00509239206209911
-0.029791049309056607
-0.002433792225122593
0.05713040097908254
0.03151924380285846
-0.08764571975240222
0.03570333914202123
0.030332362962194548
0.020987296808767535
-0.050436300689303194
0.02774276658019517
-0.03357318460965485
0.040000537126987035
-0.10432330567995421
-0.044443646894784555
-0.026154931177353402
-0.03149999137290315
-0.010799218374677065
-0.013181722384091083
-0.0404249404875774
-0.003580041944723686
0.090880180874096
-0.019109467389895437
0.03379475030211876
0.012519736899422946
-0.015359081056930674
0.0573979866292603
-0.004909584679242414
0.0689140548314896
-0.07339638615257507
0.11365691780126735
0.05570448370689918
-0.016042540790936238
-0.007592015808369929
-0.027361525176872428
-0.09531000596190435
-0.0266900381937477
-0.07576980249000985
-0.11621083791418063
-0.05741110604493285
0.03370761317829124
-0.021766683220852463
0.03999694487382679
0.06482378190589431
-0.04078050402736155
0.030872446626700575
0.07753599222354521
0.020517391518364774
0.05007904623121811
-0.0695289482172035
-0.02294024479145548
0.012911309222815585
-0.06100610899647804
0.015948427876238357
-0.0019187088952497254
-0.05997195739580041
0.003187593079854588
-0.02099128802153576
0.08974582790855326
-0.09261732681040688
-0.057783340635159886
-0.04030921107101135
0.0669969495312525
-0.022738859728603136
0.004879359264968151
-0.020972967344631846
-0.00884427431976143
0.06625802309481692
-0.08458006946392954
-0.01773554051531651
0.011486938880895192
-0.06497852677882542
-0.10265186045313564
0.030460654460134202
0.035726941551176415
-0.10270131998290083
-0.004969299465090115
0.06704126199495962
0.09941273160016174
-0.03129982166860264
-0.03809277763415032
0.09556028577137564
-0.016064271663169198
-0.06135367741029934
0.0033502376977258825
0.08564400801073513
-0.03050764937380685
-0.07794651042165253
0.12845668962172818
-0.040447105986611796
-0.02459138153822279
0.019277377363225285
0.0179732716956247
-0.10038604117190673
0.0031340812539061218
-0.03955100463364492
-0.006213381180928791
-0.11460293277064576
-0.013150704051797274
0.05019190796790725
0.03130247053821242
-0.03952330379664751
-0.004266110909100672
-0.016206142708106896
-0.05575999327896548
-0.04386580963187837
0.1100081509032114
-0.055485173586285
-0.026805573169198845
0.026076376776265148
0.09884135303807201
0.08799756262531883
-0.028983646607730302
0.06667770967664598
-0.010895946536465074
-0.035571832753868396
-0.044080830087545674
-0.021066686330635846
0.06793612261111306
-0.06256646815459825
0.15920974651293285
0.4938469621743852
1.0565980140108768
0.5406329269332674
0.07465376158954774
-0.0009267383472311109
0.00627625273706316
-0.00902746139525578
0.043122148759859806
0.02144357577516274
0.03906149675076642
-0.04441458373887793
0.010302242973643776
-0.054965093135268275
0.03241954351119341
-0.06899379651721628
-0.072827463416412
0.008201708973140652
0.07033654815612159
0.07152529786838138
-0.047569289145151246
0.016117290364948963
-0.0030673782178123514
-0.057112637328925055
0.10059706862097029
0.07671734726822116
0.029351954955852324
-0.06312902262697279
-0.03725924260661331
0.06418411028200717
0.042457438620558396
-0.07956677113844757
0.018473343878015202
0.06156116231703081
-0.05038657904717089
0.004833601367572716
-0.03957197635852914
-0.049480571406643914
-0.041559869561534506
0.06765980229396795
0.04984000175704352
0.02902096804245935
-0.08187146615992502
-0.03952969532912331
-0.04691400107773517
-0.042473311966997676
-0.022441503042067518
-0.0379027284419517
-0.07495505053645372
-0.009555243572734712
0.04715930545488495
-0.0198789655310964
0.00275289027273072
0.0010980943115792604
-0.05233485783270138
0.005450572440364586
-0.06353888115418663
-0.012638337014823859
-0.016540117306494597
0.04618721642748457
0.13613259793205126
-0.011544511422509507
0.02654194208038656
-6.592094675618177e-05
0.1642419568293615
0.00273856221028515
0.07996415456690328
0.021722185824691227
-0.020647126715520936
-0.03868300410353031
-0.0296166946825279
-0.06342003910594843
0.016623982071761304
-0.0029430653775906973
0.05658426301785696
-0.029137862836940084
-0.014264528529119642
0.009199322069649971
0.09282189631817063
0.019190512412939363
-0.1139935408076283
0.058357971451400495
0.021319482078924402
0.007970052175480222
0.06283024846112659
0.014790249062562811
0.06174427798961877
-0.051874958608502546
-0.011124254248071407
-0.03763212031656723
0.007073155190216608
0.08317649529066214
-0.05633737817295688
-0.0031595756252412997
-0.06530221416200065
-0.019545664696357982
0.09208143408017237
0.046292422732511884
0.00020158355152304536
-0.03812699309248932
0.0314552048214283
0.0476628688550402
0.04410563725618103
-0.03352902589733731
-0.05151854338302632
-0.07054051660902379
0.00026462474459666485
-0.06893327854182817
0.032902774616820694
-0.0330040411894636
-0.03528192022043472
-0.02859416361496886
-0.002124654348399178
-0.16317461351863524
-0.04591545556856857
-0.007274275074607138
0.018646763254093302
0.05782534374038006
-0.06326824120466483
0.04957014898152139
0.010676874621727783
-0.008882586420443967
-0.03646980243958219
-0.005634912131552981
0.07671142690681407
-0.05695954519402102
-0.052725382552999814
0.03129587863577142
0.04191148340519679
0.05079505033798424
-0.045953973114369134
0.04324959085513913
0.030556494268234688
0.03638857081075341
0.05206589984180657
0.09875497648976608
-0.07728956515871474
-0.030393824808567328
-0.09807991804762634
-0.031497639845916955
0.007040755044017983
-0.02293757542656888
-0.022133048495313112
-0.03233240171048463
-0.03577188748244038
-0.028812696378300987
-0.04315775989550408
-0.0049439627803847044
0.053598617177129264
-0.035626180267959794
-0.0697572174828101
0.10266136422675541
0.031464263096038766
0.4935552760037691
1.020319078698015
0.4907336359335715
0.19648419981311638
0.007454909548659242
-0.04882157052012409
0.00941539680029469
-0.011966052238468876
-0.03556950966712879
-0.010139411543662994
0.027771528777848206
-0.06875043109063834
-0.020390213093762398
-0.041263919002582694
0.02845822725084167
-0.024737410769931
0.020473377964980617
0.002916907515737607
0.04108537998204586
0.06867809560430628
0.008912234898148517
-0.056271786980173134
0.08936581375704422
-0.06902911795079841
0.022444278842623063
0.0038029602174833783
-0.004370906557390679
0.030061506054086935
-0.010877764819288554
0.057213613963647894
0.05170581427511134
-0.0020268590681250145
0.08444668849548925
0.09487129959998991
-0.07629558411129729
0.0012853497759012947
0.08424454265793808
0.0005467703020443042
0.03514457958589999
-0.014369250838926668
0.017872532038241552
0.025870130571899658
0.034837022454455815
-0.009266217488029095
-0.045505934476351824
-0.0963922940787389
0.01462313089639453
-0.12246293436389366
-0.018963240027981897
-0.006491934197402977
-0.009567805871257523
0.031420208038628474
0.003849608180230558
0.03328754162489621
-0.007346901135257437
-0.015074769371375876
-0.059547207667457185
-0.10165784912545031
0.019936116703510864
0.009981302361616033
0.03518285987386023
0.00033422036580743554
-0.012791685979831295
-0.020561825518076428
-0.013589938476107566
-0.04391365146760859
-0.006945308011408433
-0.040196167716481684
-0.02944623906684837
0.024799055738909604
-0.01248151047248234
-0.01120816358048494
0.022805915626040313
0.028070013986142523
0.05617436496173325
0.019400922425756268
-0.008784228686824965
-0.031065180233445983
-0.03474125849988107
0.032587991955581
0.04708224408939594
0.034271782478147286
0.04499257302703828
-0.057273213780110965
0.0699260968746221
0.03547443119662618
0.035321919961626556
-0.010804924762133827
0.04187561446105342
0.02758729064276776
-0.0740545475319063
0.11397560482534214
-0.09722228442240642
0.012529789421986069
-0.03635901402494283
0.04164983391435007
0.0369968921366578
0.06108202161431423
-0.02918916033643451
0.01100330039908674
0.03631285202758135
-0.00316897151803691
0.05253278876653288
0.0687232715786592
-0.025651797832853512
-0.06635640048850287
-0.02191612420871003
-0.031802353218034436
-0.06843050332841331
0.018953974389348732
0.03423048231715422
0.030723609381100938
-0.05149597104592357
0.0713361125822745
0.05619327064012028
-0.06273440455886185
0.007070666902764615
-0.033780489992069056
0.07401371041701814
-0.05547888722092129
-0.0014557207930083335
0.02940291966878277
0.006281781675530978
0.09926358407007158
0.00958485994327596
0.033078357146789916
-0.04004960485263523
0.01894278663541488
-0.03647467805843272
-0.022186838575535474
0.02850175130895769
-0.037707218105428535
0.04455453413106837
-0.0340898795723487
-0.036054027384872345
-0.008797047521930624
-0.05842270880923194
0.05798523212532092
0.01268472453243861
0.05219021740327134
0.08259635774794431
-0.011464140760071836
-0.03483396225678158
-0.038685964008488956
-0.04111942397383747
-0.0013023403461910991
0.08072749191786034
0.04029068566411839
0.05827206700983928
0.017197675939984957
-0.026820858828133884
0.002057442394531581
0.002475965523771353
0.015394929561009777
-0.08139409656598912
-0.052650118278914575
0.07229222725431324
-0.050380479871713346
0.07509929740307672
0.5543285600951445
0.944185492731834
0.5307546680282861
0.17817319651827562
-0.02491423664679252
-0.0019150452800584191
-0.04794331387723662
0.004336059237540344
0.014909406093182299
-0.07812523330684336
-0.010083056540195623
-0.05930468614631767
-0.00028438108721963684
0.023950414928901237
-0.004424132091531513
0.0359748513018253
-0.05385269581574498
-0.0297497415468676
0.07604438244090486
-0.0026156503155060884
0.010195477296263416
-0.02721875404230986
0.053446208290712865
-0.06126903508307629
0.016802834403539024
-0.044840189045013704
0.00718406145935476
-0.06741846707468718
-0.025944411221382854
0.011126458845885163
-0.032104204219403985
-0.014281942954640673
-0.08302081474196094
0.008103611744078112
-0.006319237733163162
-0.006715669397851268
0.014523282844120484
-0.10145224577129522
-0.0245510068485879
-0.03258339191397629
0.04701204102081838
0.030397970852563513
-0.059740713244667745
-0.020554487284037748
0.02530785478116488
0.005434284476998481
0.031925937031974244
0.04984888326257381
0.02122481244930546
0.0029578852227440727
-0.1002285153321208
0.005568424264042447
0.04985915576155525
-0.08161435405031672
-0.00015932843244632683
-0.03703239527027696
-0.02450770955803272
0.03346970743667965
0.06206413892450094
0.03337903656826208
-0.029198603947370862
0.028795116954857886
-0.06632403645767636
0.03338687142444096
-0.06005451446279693
0.000976563344609364
0.07457595214377086
0.021093353200273158
0.10100358652931721
-0.019882000692657647
-0.050133620188158895
-0.12732913371366766
0.1307273621606537
0.003884365474285527
-0.08548079588432721
0.07447281282871447
-0.07241990453631798
0.09130271636514722
-0.028295137091184742
0.03845453233016426
-0.03598703962403441
0.0888541553986796
0.05848863569050564
0.07556975728827671
-0.058340675116485885
-0.05184958014087998
-0.057661573034966065
0.036322730638248514
-0.06558337680235692
0.03611333413468346
0.129453770494582
-0.014428092612740712
-0.019731217926566742
0.005682376061465738
0.015745111982231594
-0.025155935518645912
0.004080985655056597
-0.01528096851111886
-0.008247154901033957
0.010064227124811548
0.09275017615548323
-0.0414325715164969
0.04123200954540022
0.014972492037866653
-0.05103388206345703
0.16489036178056102
0.016855512264774174
-0.005448748683546832
0.058695879039734444
0.058969636958358544
0.029242678096491267
0.05834176016049513
0.0800094039799966
-0.023716298762426147
0.06752027489294064
-0.0487603283330067
0.04798179112272846
-0.047817065317604185
0.04022231338390062
-0.06294814659031536
-0.006452114564786539
0.08061309526624025
-0.03490501351398688
-0.04604002471661499
0.0217728096789872
-0.006900387315212571
0.05809290408621814
-0.11961868542161723
-0.0023175957700516487
0.03205811333707261
0.010683400960387557
-0.044407193995402015
0.013994933889643062
0.13403414565817284
-0.018503749266103754
-0.023647507213121897
-0.00866862971198274
-0.008472904850318399
-0.021715914167359338
-0.020163835006413323
-0.06164648038081865
-0.0371733844002823
0.04765651827470718
-0.026363694496098673
0.04170619017984125
-0.005898864796282593
-0.007779751372614681
0.0647463895184675
0.005306896586241192
-0.019909061338208883
-0.014359715230855268
0.024442263291643295
0.0382442922474365
-0.06123874848260951
-0.010942103844292006
0.0352630257471018
0.5969955879555785
1.026956911600956
0.4641920529742843
0.10314632694736019
-0.06629027399665344
0.09495965075149991
0.0018935788987623535
-0.08118420128622356
-0.03002055261257471
0.018206649769660934
0.036018959434639966
0.05874816363660293
-0.0372460772408921
0.08989339998603585
0.09548445768605535
0.04138555873874371
0.004245990970771811
0.024357718930506905
0.09283245074793439
0.08579231674374474
-0.08172631125333112
0.011110590505661024
-0.05678904812255649
-0.06535939423984166
0.003732619208139343
0.0555582186416717
-0.007284996945368952
0.04678138915580346
-0.009885867552636542
-0.07862337149239132
0.05462055740660961
0.037140900398991594
-0.03840669924637916
0.04691847047625389
0.09257005547248802
0.017850486276028577
-0.046363344797648906
0.03024206632584829
-0.03569615557575419
-0.001739014804602871
0.02831099915411521
-0.0011040606150236254
-0.011312987917713655
0.055352921099354524
0.03114088645032802
0.02996778004606661
0.031613419289157445
0.009493616337845059
-0.06787324758960815
-0.04931309915030338
-0.010093469259654625
-0.03976604345452481
-0.03753738250333143
-0.0036831139993645638
-0.01950520749683766
-0.016801634197247027
0.06493186514559993
-0.0380875207143576
-0.013345619980042009
0.06815838055249535
-0.05757794150193971
0.0445683812645366
0.053990281752658124
-0.04993415560004032
0.05425388278526051
-0.028008629958648064
-0.037504476540208685
-0.004862305760565564
0.0699882768148718
0.0039656045680356525
0.001330028986577921
0.03012604794544682
-0.05076337192035853
0.029245170644546327
0.004731551653255942
-0.07481972067504197
-0.03361930122617901
-0.03623333706819531
-0.024133457313357677
0.010737662737602058
-0.09393359035135945
0.027691371364446382
0.08212260067807423
0.018549619309325964
-0.08042026586833255
-0.09129317765793163
-0.021786825432358433
-0.038386219421400386
-0.0035569349370891444
-0.012920502239839718
-0.0012869162837882428
-0.055848935352513875
0.016186255834259918
-0.05235884283826382
-0.03418663641691792
0.004121004734201952
0.04485003887964444
0.10255712323572566
0.060195524834700864
0.06213143674139313
-0.013817978306820234
-0.018819530396262777
-0.05475597192447049
0.00804018649437816
-0.03423698162111806
0.08575497124695433
0.05965525863686438
0.06651938991309761
-0.05287604616004447
-0.03059523610552649
0.04385029663034144
-0.011087337263257079
-0.03156029037699883
-0.061542535538778434
0.02123375170110292
0.07495309739599902
0.02068948001475608
0.03138419635053694
-0.036047138849207135
-0.019396048490262982
0.08027735516187162
0.01606559058147627
-0.05599113314456483
0.05480118067469787
-0.012637437819126983
0.03377381627566812
0.034116605334538495
-0.05843487547964204
0.03387435491458778
-0.02086065085717406
-0.08377004639119337
-0.07223879584053325
-0.017960104972980905
-0.04321803964273648
-0.05769799616510747
0.06880464893924755
-0.016571721847431824
0.025957394538683617
-9.521231785369856e-05
-0.07046130434680672
-0.03895101523457689
0.051019232025118315
0.022020093259722973
-0.11560798059052158
0.03548694850329961
0.03860727223857382
-0.04330608375818128
-0.025307935785863628
0.08027664771031047
0.015696667477555975
-0.03947762653508
-0.051351746668230516
0.0656425399117762
0.024336766952078183
-0.028571944785077574
-0.05363520131756083
0.027403626088833455
-0.10987615545365399
-0.0007780781617310462
0.05962826876094371
0.08488206486348233
0.6161325204195576
1.0604836528285722
0.5281109945023665
0.044086841968689616
-0.05124343503323475
-0.037656322080567205
0.0341709256891791
-0.02012488633205914
0.011561649759797909
0.06956312866328412
0.050608311611291305
-0.054457028725021374
-0.11421591700450909
0.021508984058863482
-0.0666727173805348
-0.034407457975070214
0.017757528062270395
-0.023592651920156815
0.1482914579163717
0.03785264774581273
0.024563896415785158
-0.025409978479091155
-0.09156012065478873
-0.014964689237065641
0.050571638068054516
-0.022242039639565368
-0.04866061699782148
-0.019672563460184454
0.05004764428785388
0.049655888968742116
0.05854795506892133
-0.01696341592355149
-0.03951655114996042
-0.0685148807610556
0.00614767450713306
-0.039206889046580574
0.056301484903278715
-0.06970117295601619
-0.06977939742338175
0.002536026993031251
0.041800503698376915
-0.09082126585850113
-0.028474013376490664
-0.007246505080253406
0.02867845379324113
0.0004765945367317882
0.10943585655985118
0.017318452560799516
0.06424965897790885
0.08522170339117059
-0.07847743570022964
0.030072136478820996
-0.0656962554489846
-0.05477914856937412
-3.207769220419564e-06
-0.07572575081071839
0.06442561564034964
-0.04745285909541619
0.007307295272173337
-0.058363097205884375
-0.06219067714298435
-0.06555827660301988
0.07035714355718989
0.03490022586303587
0.07306685753855162
0.033084704703643955
0.048128342377052345
-0.02127277020101974
0.060364970058306315
-0.04811331863464907
-0.09069824351219645
-0.02858162455413061
0.09832768806448698
-0.1131577311752407
0.008739632284014523
-0.039098763658807115
0.019779345206929685
-0.10596258711208756
0.0898911142366459
0.04891293091652596
-0.03611736473480053
-0.052581022409692306
0.025923587075057694
-0.07707584750821735
-0.012924484877024162
0.11528749547594462
0.02733982955240575
-0.025758158120521124
0.04228545223542065
0.029384557160251568
-0.10292997705330986
-0.059298626249433606
0.032791697985266925
0.0738183952293218
-0.03320842196350423
0.0321052285601183
-0.04966975454791203
0.06329316281286025
-0.022354591708301355
0.032239038369625404
0.0026180253014383534
0.09503855708823469
0.06516841526227299
-0.025162861256978333
-0.07066696243211486
0.01871768998404753
-0.030905206368360295
0.08237676155199497
0.02893010725735507
0.0962274594252397
0.04827384227378301
-0.09757490216841212
-0.013044588931637202
0.06572308700587762
-0.014628714647275144
-0.004706771613978978
-0.10523533075389507
-0.00031542204521840133
-0.022259044960302815
0.05670952985630039
-0.13166859770553413
-0.047208924017178244
-0.07616642171431029
0.04334287368786076
0.003310732439399179
0.08617432472510822
-0.027134385237684824
0.07094358130026292
0.02949339010218992
-0.002751308258509081
-0.0033512201786709546
0.023865555910770817
0.03251834073881846
0.013150335713650298
0.0678565768613092
-0.012229914261912993
-0.03762111251145561
-0.019745856307370756
0.0366885678666193
0.1434615799613544
-0.042272106197638264
-0.062459967210389725
0.0028599834665847213
0.054034574897412424
-0.09636666879940536
0.006485844419195842
-0.06658916948006523
0.052816047921058075
0.04469615599587756
0.031676746036265524
-0.0218937350584779
0.011657727227943424
0.09354948072782447
0.49604718766836536
1.0147798420016898
0.5151261551800953
0.10192877666299872
-0.016715793236608833
-0.056513201790263694
0.04295359019891034
0.05942727695905166
0.03930044247527746
0.022048105244500658
-0.004926846235711172
-0.028422191429819707
0.009230780318987669
0.1056592755006859
0.03680258903728393
0.025913851625152175
0.001896354956492384
0.05163484934565065
-0.044196572754861274
-0.049289170028256044
0.024598921413176805
-0.005535586258436544
0.02198325634225254
0.08738916855095673
0.0206088384488077
0.1358865598056805
0.014811105414004107
0.06977746557743418
-0.043870240338225
-0.020935168577855646
0.07170084996623803
0.0077940365541698635
0.028412733877955034
0.04892009276836249
0.03972587551640826
0.034005531810334104
-0.06094218614641187
0.04484088327946317
0.025042911336554285
0.07617090907922984
-0.016824737822520638
0.04330821203680596
0.05200538620493487
0.09308508552471652
-0.09036051432989703
-0.03417744697036272
0.01073736451078975
0.03941013653408899
0.00537480095836183
-0.08795869955305737
0.010534467768664785
0.058729233757887134
-0.017277253149701615
0.06038129810695969
-0.025914765490000193
0.007561494046134556
0.08797337319714471
-0.012241013062969604
0.07060898820366837
-0.021659902646509042
-0.06918532389183178
0.08306397773575203
0.019303765731052594
0.028872350413995704
-0.06269627856895653
-0.061015903347589384
0.028871330092112873
-0.07908818091072028
-0.014995879397266038
0.04507526605129105
-0.05649381141635077
0.04833573971515648
0.06084093784914442
-0.036284845725271575
-0.04515351477297606
0.00637129062258912
-0.03183665724071239
0.05487365612683503
-0.047847456478499265
0.07916408836751365
0.08889482600284848
0.016022721765724824
-0.026617703186039954
0.08275865374645514
0.13011560941259773
-0.046973437215935554
-0.023491769190899625
-0.12388692610846647
0.0024402109772620976
0.049758338707517114
0.04152473076630836
0.03087583995210405
0.06244708271980266
-0.0038759759501168023
0.062195549947277565
-0.07781940477685376
-0.011139561661399993
0.02172052306014483
0.03078661295842032
0.07426451705041436
-0.017681858866857147
0.026808989475575074
-0.00808871209196795
-0.005243392166351991
-0.0005533477854481817
-0.08231325360193617
-0.012046895354630043
0.04284108046418868
0.05083770934657235
-0.01528911562316104
-0.03024004381511927
-0.0614769419921074
-0.05728164891557779
0.061222402590616704
-0.047511499106734634
0.02994883386738792
-0.10927171528687643
-0.08250232148913182
-0.0354473018375071
0.07443223687745762
-0.09015798276407098
0.1140442354700302
-0.03342610764555365
-0.06381370868461604
0.012173955426491226
0.0028142140524638243
-0.06498296457106877
0.02795410564963144
-0.013370421106719889
-0.047004374975250444
-0.046950079069115656
0.04567749415002503
0.017136646714757193
0.020006487518942212
0.011270623817868636
-0.025013428144322267
-0.024839342120916947
0.07271735278101646
-0.02547692201729021
-0.07204241758120887
0.023558950418242228
0.012272651741601982
-0.03401597819037668
0.07766598452276716
-0.027833867711093797
-0.06071784682886769
-0.04206853254775221
0.016707583911027654
0.07930188350362954
0.003398929847950479
-0.06290606718602249
-0.011590884213128188
0.030008826895263515
-0.023132039512746432
-0.022007468612016065
0.0007996465256573382
-0.09430869179955134
0.001202589861743433
0.09994753583136688
-0.004916096783192105
0.17074483635529086
0.5344059401824469
0.9411189021642602
0.5509214199179517
0.146871925591892
-0.036615221972407075
0.11079373521381396
0.0290523266183654
0.004109307466809172
-0.08950913239965358
0.0019567679556153532
-0.10330465618053969
0.050851113935865326
-0.02177052945303084
0.005545641063888205
0.04979078380670682
-0.027424092977416187
-0.03132594684761523
0.019073048460284597
-0.06779609717515835
0.013482349364031369
0.03863334348749677
-0.0003490486594678722
-0.02066907016063754
-0.06952058688862954
-0.04267150347940538
-0.0016540256545700264
-0.021044666221908054
0.018027698165045476
-0.0006764381139942516
0.04202115662990558
-0.09319727186231917
0.15083755574787708
-0.03832213037027853
0.04041087495656678
-0.05345513063382832
0.11055815197520935
0.03549245326412447
-0.008851211842623276
-0.10032150168928998
-0.09863094359737112
-0.019924301673328485
-0.05051355808014674
-0.01260941247815786
-0.014313300039201674
-0.035709136880813404
0.020998409108836852
-0.0378708634215149
0.05059956397612092
-0.08237930015985306
0.013819102805867251
-0.02479400997866928
0.0485494413254707
0.03642510392194038
-0.049776760834042116
0.15586015989008975
0.014481396823946968
-0.05196953612795039
0.07234535914903867
0.016184042742933873
0.04836998399122473
0.0018310618999667794
-0.06798403893389977
0.07867278698861196
0.009034445914776831
0.01999706233223089
-0.06664911303145186
-0.024899149580166285
0.0014364996259404958
-0.08496417316054303
-0.0037085137371466142
-0.04198976731829432
-0.012282791270015192
0.012320412090072756
-0.11183765443792598
0.002456241247057753
-0.05079649470506264
0.036333447490355185
-0.03927131650804355
-0.0007326087383498854
-0.002131647952866931
-0.020818533918964908
0.0538143355875497
0.07912740418010437
-0.05631601395439857
-0.013069823487201655
0.11439741372866646
0.05182544794207264
0.034492623682879614
0.025866531828015883
-0.035235402464801474
-0.0058245539454944775
-0.025344551034235094
0.020353860085054812
0.047964818917897084
0.03697206747445306
-0.01124255170585716
0.015741390996564478
0.05774862759951686
0.05101084680030804
0.01967039902321139
0.031534923786639045
0.04265603686019151
0.029232881399795404
-0.010365742041622057
-0.03677691760903519
0.08453906312033556
0.10010464534255246
0.06279558198357556
-0.07151030178137394
-0.009324173991964708
0.010029051148797763
0.021182224623819846
0.04453580595432958
-0.03289429357713952
-0.006996616918878047
0.03546720888119646
-0.03318948647422687
0.02552243594253552
0.0024408244606184126
-0.02035063660730397
0.025197347864593506
-0.029024081617560545
-0.03943880864706931
-0.0448124357593566
0.035238849175953615
-0.0427232529031686
-0.021633000883700477
-0.014908429151415922
0.0022541216825395518
0.033602367022576525
-0.02402615021583458
-0.005610825081992565
0.007747186471267842
-0.06695554312163278
-0.06125431922183549
-0.03148778367208887
-0.027540970716685965
0.023209964230102954
-0.05721625914594269
0.0030379323072511864
-0.0107178480888598
0.048739350404658835
-0.002236319212526796
0.015237536127343182
-0.07498820665968912
0.02555558886912271
0.07374153996728901
0.04874459574464876
-0.010785822212523145
-0.06782012472488524
-0.09284905821869978
-0.009157078978828387
0.05593376647171702
0.03459494297418547
0.6203112511748925
0.9158099077451711
0.5307153936905111
0.10730108960386497
0.04844044858107823
0.06550196114581623
0.01973181812174039
-0.022936006267439163
-0.034975913849840126
-0.0031156937658918375
-0.007937361740736741
-0.04812181227671845
0.03452047649260243
0.08248562283871369
0.009929552811869366
-0.009381529818021562
-0.0009937401025288683
0.018235375392635905
0.07337276518514167
0.011023808210936072
-0.03642785502798703
0.04208267670020302
-0.018902602400002712
-0.04839340949405356
0.07630481906610301
0.043482138162783124
-0.07708759924996104
0.06468140409131293
-0.03283023676114291
-0.029882941413010414
-0.10249100425666238
-0.01921854086037373
0.015710329899748545
0.01943479899440016
-0.005246067337080416
0.005823306259480586
-0.011831523337366097
-0.008572593848036976
0.024745342507254523
0.044820978409774746
-0.06878003518992479
0.08870601627082085
0.06168953695089117
0.01272508026077601
-0.03103425588813076
-0.08912608428675403
-0.0288905574671582
-0.018503129789240763
0.08915434484609244
-0.10522493198803139
-0.020394713701470904
0.022051853936966948
0.004035719431489165
0.02962962703016904
-0.048807092004807345
-0.0630144893657149
-0.029485317455643124
0.0037622985370634287
0.00767303790977358
-0.019786771297322793
-0.023498290717936
0.013055973292526528
0.015772986590113332
-0.08912187706278189
-0.011898376445913987
-0.004075453325379
-0.03416236726211633
0.04945181225346357
-0.07585503313018213
0.004885793742928586
-0.0014261895072183476
0.01873479736243268
0.0768794382742285
-0.005484737845386202
-0.013156755932073681
-0.0036152298662847342
0.018364402252344418
-0.05228465292796535
0.02921684619617987
-0.003081120488327497
-0.06591648660595034
0.09514659674799454
-0.10562012113372354
0.0788141329928347
-0.06534480193840891
0.004884815909848539
0.06073377142576034
-0.09360069690474176
0.03498798721349453
-0.00111784616474487
0.05144321041828427
0.03229050196055942
-0.058202223031721026
0.03528548771294509
0.05470730208218523
-0.024525236281970158
0.02353442118518265
0.03388773794686241
0.009906503017460358
-0.027164992934784263
-0.02067685716711809
0.029284165684164715
-0.019363166776639615
-0.028820714342326366
0.03403289468729728
0.00995418209784321
-0.02777005825105692
0.03308836604619698
0.0148311115969899
0.033001634589375474
-0.04067990902787015
-0.03424033487314755
0.03978616649313155
0.03235435455524321
-0.0034344880901215065
0.051077272893820594
-0.0760971201142263
0.03011895402645793
-0.03905722906473785
-0.06467161532291321
-0.08384268533489726
0.00758654423609219
0.03550907715451422
-0.06687780495686861
0.02897253407196389
-0.03562349628673881
-0.07091016697932744
0.07786722956271024
0.04077605502031752
0.020543506916892634
-0.10827857004146475
0.059149984855985355
-0.06107617488875048
0.005180268932807566
0.08043916342651669
-0.004974062792028486
-0.03979066099684417
0.08136739800885973
-0.048815105058230474
0.06127168368203824
0.037588983833847775
0.06314906389229913
0.02262382031568194
-0.09159284725604197
-0.003815112258539074
0.010269312960746815
0.01922426099828516
0.09820485336754389
0.056012200705123166
-0.035645110260501565
-0.025809004983385217
-0.05401209480070245
0.038933165759380106
0.0723602540108966
0.01558778699916675
0.04652306593369947
0.013888039523077676
-0.053703195254858185
0.07989937868022792
0.522520310970053
0.9733803429231543
0.5856265173958958
0.13025735164074512
-0.05410338671259381
0.052876585409778444
0.0035953700625254987
0.041310590674054785
0.031910807818009236
-0.04955259495396831
0.014449532267788244
0.007291059941521827
-0.0906121572953765
-0.06628847521793292
-0.10437670438529308
0.03376228016629092
0.023623404221256337
-0.014138500781016534
0.039343454357583796
0.16951947729484956
0.046925910641943916
0.10821674966894129
-0.0145365121948363
0.008716485421564392
-0.014190382075940346
-0.06541605858881104
-0.04147940075203741
0.00014949798911128982
-0.03909528702594901
0.03420830291738974
0.03532542407010997
0.0019377543146225505
0.042899898506632554
0.012045236933742563
0.022832840677694262
-0.03942516774041911
-0.030843279403318394
0.026614964972826435
0.014295313137489815
0.011978952274458514
-0.043369688432830795
0.028989753350364075
-0.0069283596973962695
-0.0027732381571040693
-0.010202163045777273
0.06274105655237348
0.08845561035797406
0.010865791462032546
-0.009347473623985103
0.10920466618704426
0.003528274107917374
-0.026316223084301996
-0.02857459687242117
-0.05323065705809733
-0.0005456813134802088
-0.057973803180236774
-0.008825572989240749
0.06274368770198421
-0.02644351902250616
-0.03149595775807631
-0.046230538406584934
-0.050253501484466105
0.03431427697704347
-0.02590908457118739
0.00592270971413567
0.047272388719034025
0.00994232931093051
0.009204943137317335
-0.05441567075315245
-0.05324741263063301
0.12743236349804585
-0.006423490226269173
0.01986688836079877
0.05761015340282144
0.007829077128191088
-0.021814863774964666
-0.01893485452523328
-0.10781335466735593
0.010588423677498791
0.0008300854483261804
-0.02084449490094317
-0.08900735117408501
-0.0021776220224697094
-0.0765484423687875
-0.041544938223864965
-0.07634717959105985
-0.033150910243926385
-0.0638725222396832
-0.11629943571225357
-0.05886160076781954
-0.05699520056073787
0.003351539534640995
0.050337848267503774
0.005776121538207421
0.05192327659214209
-0.00046748972205324464
0.00754720857048114
-0.0819273774388235
-0.03217465371204694
-0.00535838949232266
0.016419757920696065
0.023275428750317687
-0.0038564594517246868
-0.04335718760634759
0.002763583202914622
0.045542500523823776
-0.04253981013711364
0.009367406746233936
-0.049694845305359024
0.021768388349261914
0.008167759106181593
0.11038186315023135
-0.013378369307379262
0.00822438301524145
0.003971556468797813
0.13254979060665048
-0.012354168198506078
-0.038449233366497006
0.039845405534662974
0.041025761040292444
0.041612436308284324
-0.04426212113395986
-0.04737315788619586
0.008494800108901801
-0.07446113270111306
-0.06452122161313456
-0.010704830383843289
0.07366635551661295
0.05845625706882829
0.06792164311013744
0.03310622807326348
-0.0759913882548328
0.0388160272857904
-0.04589979138406261
0.03400547688904882
-0.01832241564091402
0.05260757415632814
0.08815115198080029
0.01353696508040456
0.05381475356586152
0.06503821503177118
0.02863684926351111
0.09436324672557718
0.09104670617714089
-0.009033306212570131
0.006681619504352693
0.0321895955014283
0.06111524615190054
0.05335924156363761
-0.020827392014665613
0.03338031908287805
0.02083191378255131
0.002087087134725283
-0.0489997263617133
0.022514941404928344
0.13054678815685217
0.04473111708868174
0.4798662121435944
1.0628387103374768
0.4406544254005951
0.052946140576767976
0.04333395102740409
-0.02122857347016204
0.002950430944465868
-0.014329524262073979
-0.067401109846666
-0.018534907981913287
0.0940486523684646
-0.049485726155699045
0.11141297496335008
-0.030594494735299967
0.06285646602240265
-0.02578966710792754
0.001197837466125291
-0.011167245131978143
-0.015941752068657916
0.029315015380668052
0.04290155747649729
0.0056590943642432535
0.10698241509503144
0.010541367059836385
0.036216576698507516
0.08370244839732059
0.10835578859095317
-0.011973660013694947
-0.019045011597884562
-0.09541772964125628
-0.015173711969004798
-0.019219187440816327
0.03417810124180136
0.026419073013006895
-0.0021745560757762852
-0.009623324823458868
0.010830234324913215
-0.07572005236930346
0.04682083172376436
0.0021099428953001527
-0.024684011780614277
-0.02896379341953327
0.06827208498788477
0.09200881712871611
-0.025336946936693656
0.02943292274949328
-0.03124918858964736
0.00836799010142585
-0.025796321968678267
0.09106366225486828
0.05978780796568056
-0.02928793512768805
0.008908823530122553
-0.01696800586541303
0.02356038420091877
-0.06650302250281433
-0.0776110068571406
0.07295745022504484
0.01167173009754298
-0.04157571258134453
0.05205188048857833
0.00820510717056964
0.029646849758798367
0.08116883206797662
0.02166558947923709
0.016927086742799077
0.07241618741767301
-0.07345579184308937
0.05248334091705627
-0.019244345942783292
0.05587723676093808
-0.03774281239113394
0.040284604833704
0.03236941931456107
-0.014807733716592648
-0.014207273373670105
0.08893425842008718
-0.03485348207140492
0.03946850902466159
0.04495154048227071
-0.03313272219380267
0.03927533348503043
0.0017645594277794709
0.009452155306306831
0.005314107915596525
-0.02464760293692696
-0.07879293646869498
-0.012573329797175301
-0.017836131124018544
