ecg
0.9792897668350414
0.5153048054422762
0.1393961558928076
0.007474634134855796
0.025728260511493753
-0.041664947069613906
-0.009275725251626704
0.013067435897067626
0.09585868027391975
-0.022570883035823736
0.003937076600071066
0.0411597698607131
-0.041639890417427806
0.008979445498981452
-0.07201688345038841
-0.002039546789488032
-0.02864318515610444
0.08134862024550381
0.013292816755420489
-0.050130588068707106
0.019790416997802124
0.02467947250718108
-0.0026931098502051775
-0.023479048410868928
0.011443030551253163
0.09281188795379053
-0.02344255565818056
-0.09789358725395786
-0.06381837228879472
-0.029901073685167354
0.1065328115686767
0.013175593031353678
-0.0077159618315064795
-0.04123989155578097
0.033118944883370506
0.049666709520215645
-0.02380474897430044
-0.01888479263571849
-0.019392922771377004
-0.028138351557491604
0.0026685674385307392
-0.05489558232568453
0.057165388389963816
-0.033757679173607974
-0.02103645858394998
0.017359150181624105
-0.04047358795132461
-0.015934707312141198
0.05185463697213019
0.025463975769362303
-0.04900159934285587
-0.013634309552786267
0.05490744455541479
0.019601815339398337
-0.03493660986835469
0.02090589155418525
-0.06442622419788474
-0.08376213549345017
-0.06527563740212433
0.04137251931587355
0.009072601314549966
0.049186671972152055
0.005697536762875666
-0.03364290578259139
0.029793271611489393
-0.016127126370301243
-0.023001314585548646
-0.019914439055935144
0.017169764920456288
-0.007149415904494584
0.026095684522860603
0.013939820954627098
-0.0031540193331946447
-0.004426727471772795
-0.06889079712690781
-0.05248665864354207
0.07272774044865479
0.008174200019593606
0.04092238969505852
0.048190480051021105
-0.03073299487095726
0.10103172804544124
-0.04683861012323619
0.030227746106140752
0.0017028469962670112
-0.0053724358089954
0.04508216371466699
0.14844948539798702
-0.025399576277173666
0.03672365834013427
0.0012226175071476388
-0.041718433845060014
-0.023823194877356655
0.0422719193352776
-0.02559672024049697
0.0395227993335365
0.023160024939556892
0.05324102722212015
-0.05027682438449375
-0.08447136563921682
0.06931494950387065
-0.07812645481327864
0.047650354084142824
0.028175332760065785
-0.036929081576918814
0.011520470420300619
0.01601661276752643
0.06103845177779854
0.03616808784699156
-0.07924344995571718
0.010810699507805393
0.023736979156662338
0.03457694826260939
-0.022974287368380187
-0.05823495930947786
0.0561565136077804
0.06949651899780149
-0.022043958888777773
0.027425934025195678
-0.039318563671969446
0.007073152404988865
0.02967878519919094
-0.09883229465399904
-0.0397884706168636
-0.08735935102840048
-0.011364362432388888
0.05352297848703648
-0.0036955213524387863
0.027282746639937523
-0.008050974106509325
0.029638619046467852
-0.017900591896725458
-0.01614358188616055
-0.06715381687610887
0.006789634577717522
-0.06881111832734481
-0.00272805347141466
-0.008610331081311573
0.02442265920978068
0.013228062233253516
0.03838478941429106
0.04043057905584166
-0.024780356154500333
-0.08293201825602786
-0.08379060529351881
-0.0201269097497956
0.012460400226789584
-0.01383939070860549
0.06820994996674926
-0.039753786790788774
-0.053164918059181304
0.019065843544144163
0.03530441657860436
-0.048125411823199904
-0.03728311254106626
0.19228303119253717
0.5317686121642484
1.020426255380133
0.471015812684634
0.12275826101658877
0.10667927945190084
0.0035318371664351737
-0.12417788714346006
-0.0038939952889368475
-0.03802429975678323
-0.007638155648507967
0.04973689293813452
0.03435454215375008
0.05190193746668086
0.031433123781095675
0.019178653247345426
0.017457636297950243
0.04613733838302802
-0.05546526846903408
-0.08927190714787842
0.02149116250942046
0.026923192834791023
0.0015652051128216323
-0.023318213541364194
0.020237616683653616
-0.0020846974780957517
0.0454679922045473
-0.00881679603688466
-0.05372203639560283
-0.003366188660411735
-0.022702505394298796
-0.02158808105122804
0.010930247974307142
-0.07025110726780712
0.004714815753411437
-0.010978813131560884
-0.11393612885613534
0.006238049878055349
-0.13094620984024094
-0.00048770209898703224
-0.10931095442039125
-0.005885815425661203
0.027731858817095667
0.037598992021990865
0.0298141930508241
-0.014396588415477255
-0.028347247384416775
0.033247374674848736
-0.01945560876102633
-0.02029383529930393
0.09518239821892926
0.02412813263522814
0.02721981122574482
0.045098138611343604
0.03566490631265348
0.05211398509706192
0.05230762490163931
-0.040360395081215174
0.06619537682449683
-0.006993524787094069
-0.04553019932970228
-0.02531447327488255
0.103183499617472
0.003212749227290571
-0.07334905990183459
-0.004538886439345914
0.014842548046490132
-0.0022799701207423645
0.004137936472287978
-0.09234267030076983
-0.0442407807425976
-0.08647353726071443
0.029837745703846515
-0.05037265753342077
-0.04822489550360314
0.034679821261617255
-0.11051499319435992
-0.025896094863266453
-0.020942818183981318
-0.0008159851372966624
0.04577593958842083
-0.025796401551281628
-0.023299974650285805
0.04853642892191218
-0.04286763098596129
0.011007477685212699
0.0044574934364697725
-0.0024271474205234114
-0.008652210941715309
-0.027619945115812585
0.07448657664852094
0.056792602110555396
0.05424704115894061
0.007396567748886138
-0.0018401105378168935
-0.003697705646970483
-0.075195395378661
-0.07581486420261502
0.049125587202640514
-0.050196695814510674
0.07812109813559262
-0.01828647456125145
-0.056626789189206855
-0.000685742700379569
-0.00473857948230433
-0.03954094549710552
0.013144251671406568
-0.027385141374823358
-0.013340308845236097
-0.04207885328000189
0.051516166912328215
-0.09173218140504684
0.03798422162717121
-0.05532419826487851
0.031214123078327827
0.009978381788264977
0.08695600176479534
0.029637936526408046
-0.015758129088090343
0.02097864338174049
0.07419792855131656
0.05498817034654488
-0.021785776582482173
-0.005049099036144632
-0.08742453359374741
-0.07374512713483812
-0.0489269810726118
-0.032685860037861884
0.03131678223658991
-0.021257283733201366
-0.05001002666633602
0.057769670442648836
0.07081341718590888
0.04363618961878412
-0.003945788167970764
-0.08073335380002626
0.05890703233134279
-0.11721774132961166
-0.039746390954245106
0.025143564821658894
0.014790127284602994
-0.010098087835798344
-0.006920412204061356
-0.023113840604882276
0.020800398004748116
0.04583924990731122
0.04207515822728341
-0.06339555816634966
0.001165798253653537
-0.0368620808199723
-0.04340360699361872
0.04076771664720464
-0.010545713742186928
0.014148854545575344
0.06212150515613481
0.4603163386101078
0.9995113191044015
0.537638853380933
0.151220784936363
-0.019471568713413198
0.0027433334852978563
0.02272960643366694
0.03201401950805902
-0.06055397871819035
0.0598729502854664
-0.08265368451264007
0.06660440945168508
0.05784470185857158
-0.03627631045075762
0.05252738174334252
0.029265795242355036
-0.005659972495716357
-0.02446510339068837
0.015855650505272042
-0.016745365150372657
0.049390790873012215
0.0004659899053195743
0.06083253052720094
-0.00016807564565689043
-0.07007009286404824
0.0348121114176138
0.005909477306341947
0.014205737389608598
-0.07694704149560105
-0.004939643607089925
-0.0005772638247749246
0.03552178688850141
-0.02852290206968913
-0.04865030278600734
0.027639562951338594
0.07224546959635626
-0.039896690869611076
-0.06740828113144536
0.037167600869995834
-0.0783897251726424
-0.0023582434957666685
0.026025978077747987
-0.10910953237586452
0.04652903892928405
0.05447049824787764
-0.02080561919710759
0.07772428221669492
0.01082903028353653
-0.05158598201087466
-0.07165197186087761
-0.047637494536276914
0.017179058794414056
-0.016936047383708602
-0.0664935043305086
0.08971972029255372
-0.007481263748773944
0.04659307999115498
0.07870741747771771
-0.00437775653613575
0.061170822330349255
0.06150141904514357
0.02471479600239403
-0.05240958131374194
0.0009616685116019125
-0.021520407359252487
0.07098602083023385
-0.02411173006256484
-0.057239999956971516
0.12432977798027885
0.03007420435447948
0.05194047216401607
-0.008046609006264025
0.054045688641511686
0.02868680345640752
0.04595797538784732
0.006252545244016987
-0.023358707767694484
-0.03651931898746159
-0.015014717189906027
-0.09773411296210471
-0.025296280479247292
0.09439753939596619
-0.02287715636858295
0.0344200288729345
-0.08151435907742052
0.06494945401094773
0.007737046533450333
0.012180631625527703
0.011502182311483032
0.0973128145394021
0.0027751611102366956
-0.02741703337690208
-0.041875263101654236
0.03701914465344077
-0.010995865643811348
0.015050298362325727
0.09902732885549022
0.02676450530055982
0.028599766421918884
0.03238038279451606
0.17249118714065528
-0.001475745653636844
0.003765942383177087
-0.010423887039287254
-0.03352725388502944
-0.0385709266956795
0.05986309912517938
-0.016417662048632178
-0.08285141121943129
0.002785106641035817
0.05171756854272907
-0.061628640028111394
0.042482105672534104
0.07003815126524651
-0.0345507451406148
-0.056563180784012616
-0.02006433970912009
-0.008509889716255095
0.024512083046639557
0.04887964717497056
-0.13309923022769887
-0.025443359083842366
-0.057763955855772264
-0.04797201428189651
0.06065348492226735
0.036473184183978595
0.016231831211813232
-0.032542109003751755
-0.042360040461100604
-0.040276234975589166
-0.023313963382843143
0.03507358610734433
0.0157228269558703
-0.049864504146498984
0.02188523709450808
-0.051661420968023036
-0.0988950108428787
0.03146287986377632
0.02154119884114095
-0.032851704041334494
-0.021993840563037305
-0.004624988511215781
-0.10213769429106412
-0.054679661447590844
-0.03006831708866591
0.054506943170647706
0.08832691207237944
0.03352260340702051
0.08483720015607135
0.0347913810689018
0.017561879284695596
0.006787035214367503
0.05850908413337366
-0.05076837365071758
0.06768617014743607
-0.03857133044523096
0.07532989669821963
0.4255809819964532
0.952107459311428
0.49709109091240805
0.0388297048955131
0.004714239840561429
-0.018786781047112202
0.006692853005026316
0.04456649415751009
0.06527400797108111
-0.10496958501397072
-0.015504411689881868
-0.016652641316219914
-0.02601331235708826
-0.08267565962247958
0.09190589964250005
-0.048889819760208404
0.05007938709278445
-0.027805914103999546
0.10273066000357503
-0.051306413786008025
-0.03015485167380799
0.016916138834539338
-0.03554153344150406
-0.048877902914698734
-0.04334806686374881
-0.06104481841550368
-0.050595933816838634
-0.040021046739780144
0.06929256362977153
-0.024957980051402207
0.04619675872730246
0.02187720000062542
0.10192399404015613
0.040954446881290955
-0.059595230354985256
-0.08737517269388251
-0.048565450602607536
0.04788046144640258
-0.009514379198077603
0.059717862791977376
0.06766187454342719
-0.006488523913248032
0.01888724751087704
0.022263228203841055
0.04506473532809582
0.05541176204166515
-0.021067269023547882
-0.051201732696896186
0.03040592441500344
0.05132541240527022
0.035923967818729356
0.10709727403968997
-0.014758257456308231
-0.09663257534080427
0.08399842164553738
-0.014149169695798958
0.044963262326606995
-0.05561109116132939
-0.01642070562751822
-0.09170806284259908
0.006584414840600507
-0.0834108101918678
-0.07384418141304658
0.0834355588502434
-0.032314876528514995
-0.0930369579012788
-0.020982585341970922
0.03529295947747214
-0.005456443138161238
-0.006881197607842252
-0.0005404690809452929
0.038739396782786636
0.014634681052628795
0.049270832576234484
0.04707835087131734
-0.021358065155325914
0.03529549171179783
0.05901263903049794
0.08629110487509392
0.0824043954806621
0.009738292634863423
-0.01356960562798639
0.11313812592545752
-0.0796298284617955
-0.04546579663226535
0.03575591652108615
0.016209669492567438
0.06975365137587165
0.03013270439774118
-0.00027611856984714403
-0.10864360140138124
-0.03966220802232955
-0.037496259797802155
-0.05085161362505122
0.12196036468324929
0.09721453089913842
0.04778310697214461
0.04684163146400607
-0.04277513310605702
0.02376711896244725
0.06034195390383145
0.09492435026890272
-0.0383074831054518
-0.07024101099765333
-0.03233549228282757
-0.031872440233816426
0.005479209643977857
0.025432439741824728
-0.013477626262044871
0.01967728394862699
-0.1703121249194256
0.0094285879184641
0.0024308930794985513
0.15913699990946406
0.05861393862634345
-0.10621721208985038
-0.08922330915491364
-0.055495238484035564
-0.05201323230431335
-0.055165788251712505
0.1208129389463164
-0.0008353119588833485
-0.004740464917806176
-0.1039114112999931
0.09565412812752105
0.05460687177392864
0.014745801586068922
0.057175809479407105
-0.02862237719559492
-0.05689618015016771
-0.02968330433557293
0.002183954427180672
-0.028531935900284064
0.07175212399906909
-0.09981663689704594
0.030554671120459356
-0.019175475576572072
0.020423121890690368
0.021741490134308844
0.06426636100548111
-0.018316052204010645
-0.006447673968491269
-0.035759093522786854
0.037322891797962734
0.04256202665249703
-0.07558767424984843
-0.031302381576492136
-0.0250217581196244
-0.00341350312678312
-0.05521588602685634
0.023392289772924867
-0.033089199447634526
-0.037683442782909506
-0.11132349920309983
0.07822799582124514
0.025944409118518363
-0.00457536794934394
-0.008313379198131908
-0.011119917836558604
0.04474936906710478
0.15912129355907448
0.5160865141006696
1.007394917097717
0.5091614202347319
0.22938394909151644
0.11166543236008696
-0.06678928189346088
-0.012378502796907465
-0.04309124440290857
-0.03291828874503063
-0.04570505317719656
-0.001672683082518926
0.05963270868017774
-0.09682901285966286
-0.007953117693585391
-0.029055694752980945
-0.04691852341076466
-0.06483700943904523
-0.010162860051901635
-0.05921320630343864
-0.08957486389181347
-0.01775549200471715
0.010917024941206667
-0.000583536118747524
-0.010528781411850983
0.08073151003543294
-0.05834209112858917
-0.0026356516001025745
-0.03282444036498529
0.08130555259381517
-0.009891976579348542
0.002891753277147821
0.03516674457260354
-0.013205297870307789
-0.021825263625954994
-0.03595453770313251
-0.06263981193040134
0.07773810048415714
-0.0652430621456788
0.0026719291402495116
-0.014137969833908321
-0.02062443414995747
-0.00430529618020618
0.013230584704771882
0.022810923480890803
0.04667074471878157
-0.09107702824021265
0.009520007673796316
0.03842041522518111
0.02246632727456123
0.009142388626596857
-0.055514428705003095
0.10125991539409956
-0.018337754355782967
-0.01205027554138915
-0.029474114926767228
0.0651764046501288
0.009777066813899588
-0.12173686152234237
-0.03867911117592537
0.04638867095010744
0.015410651350794667
0.015615970435537
0.03235032292834293
-0.03162095720380931
0.008100239511906302
-0.009607492678035318
-0.05631627049118026
0.05342858065003504
0.04520933169762862
0.007397109674067983
0.017228769041935457
-0.10825357493253834
0.010835647657458014
0.024919258054890855
0.02170026181473611
-0.008651581591685444
0.024048331749711414
-0.047352577950175945
0.01952018785057125
-0.03237036856812932
0.041505829567557564
-0.07465468989446356
-0.029171706456411484
-0.07718369103799788
-0.06899458059576402
-0.014205756819062845
0.07671625983361313
-0.05005611545518088
-0.05046409342602283
0.023617228503879144
-0.028467762320146014
-0.08020476159464507
-0.03484587901734951
0.027890361790454673
-0.0013242374264021643
-0.005884481863932716
0.04372120469811096
-0.017574452258550803
-0.02743105572595372
0.043065617048179815
0.06358174982947667
0.06887262391984128
0.11761855976988772
-0.01392999172344914
0.0018087488107055565
-0.0007190253238595453
0.0733629096135734
0.029663792118167977
-0.07153843742037365
-0.010412413484318284
-0.12436420303118745
0.01179808592796857
0.005571127794143107
-0.0346019739477824
0.014989910278531395
-0.039719635856736664
-0.04684487177940078
0.039025281552695544
-0.10071707845610867
-0.08634227750568023
-0.018725840233201754
0.046825855862917265
0.022897429947422762
0.00975140968751343
-0.05966135371278173
0.022450784290325387
0.0303060326383317
-0.04252551258663759
0.16069664512537757
0.004079676589287817
-0.007860935174978224
0.05242938770996713
0.02639208886749346
-0.06956171695054393
-0.032636490521225234
0.06812715119070145
-0.008304561899190105
0.010347335806617022
0.0043129199456053875
-0.09777946141070372
-0.07318210445725548
-0.03740397739457068
-0.02688826473565279
0.033430693501760325
0.07581809711623327
-0.06047731702997003
0.06650385910687046
-0.006681844989063821
0.035694045561079815
0.02279434401121358
-0.03181597221398232
0.006082498869254677
0.04967527228383115
-0.08254660179291073
-0.026753629052926043
0.009269781432911932
0.10053680294316845
0.4926066087186019
1.0205693270772591
0.40203374898208255
0.13343584861108493
-0.03130517937977053
0.03896285572382942
-0.03744710946303389
-0.05402868566384868
-0.022220322868530918
-0.04097945400891418
-0.01576498254970245
0.04884067990044705
-0.03656663325324432
0.0487615304277177
0.021722792907734562
-0.0064070343538996785
0.03825738413093382
0.02653958483404803
-0.10333225976535915
-0.003659364093016716
0.011200232538205346
0.061122784626422746
-0.032987000609454295
-0.024328134010680028
0.008717547385609349
0.07900714061517167
0.05741348068620716
-0.04649691582616394
-0.050246585369719834
-0.016409563116561828
0.07914427624025949
-0.10732042235508384
0.02284894438444967
0.003920009282190067
-0.004923862048612134
-0.04957220776524833
0.015691022068295337
0.03525057563539116
0.02446627434334043
0.030321242516174074
-0.01306812725579115
-0.00990518736819743
-0.07260496468498522
0.09272105707102296
0.034468550451778886
0.006081255671060254
-0.10653410203522076
0.02661817910030963
0.02780063561804338
-0.05644672481986867
0.00944012365621593
-0.0045882420178007454
0.03977138998777796
0.0600631335601609
0.010821418424898671
0.040612734537073564
0.004375792335829857
0.08117897822821121
-0.059916602331459595
0.03231681873900104
0.0352198764515763
0.01815684320984041
-0.013744383957064827
0.08417539603951783
0.015923669679922883
-0.03151202889889292
0.04327513863060251
-0.010092917850100889
0.004024915038141315
0.043208573221353616
0.057102560656844326
-0.027084597928975898
-0.006439290143645308
-0.020247009962900617
0.04996031976901878
-0.08197587985618632
-0.04872063638944234
-0.01185209208848293
0.02597914152395457
0.01728153343323038
-0.04042549342383161
-0.013806693136374754
-0.06233829108957087
0.004503748880655569
0.019962065007674494
0.02423525416867528
0.014279613433327822
-0.014574772742130135
0.01956638381810686
-0.00406061570974587
0.012211377989731268
0.050063100987055846
-0.057151491522441915
0.0001457696657370139
-0.03498494545996236
0.006157617423505967
0.005670976449435871
-0.09904886879112972
0.01828194327894666
0.07653372548678247
-0.018998398662982183
-0.0775256759905194
0.002497667566669177
0.07638063544013352
0.009268246664631776
0.12194847107906621
-0.032693733168221446
0.03030943304274379
0.02874880070270038
0.06396844880090162
-0.01921544053914445
-0.08438688646930241
0.004938549084003511
-0.08086135019919771
0.015194744253852421
0.06495483788171423
0.10969082510009763
0.09735163642204342
-0.002999698673515164
0.008305819185589465
0.008935012138214689
0.020464503498364636
-0.017475722768345185
-0.0018194789769966136
0.02021385385351925
0.04520335307676138
-0.034558550759723104
-0.03157161591304621
-0.058576937344398644
-0.034200730601183435
-0.05279833043086209
0.01406131765614683
-0.05859180549335802
0.00048029962147663226
-0.024814678619244974
-0.04234395872358734
-0.03066884306359412
-0.031481037391252346
0.05521899632761212
0.027287564190330363
-0.0426780721421647
0.042901745231132105
-0.039372714645173196
-0.005643706308402719
0.014879213419513588
-0.006939291199008758
-0.031066195318127987
-0.04536079264704601
-0.05221881513182533
0.04149799113992291
-0.048364501682538544
-0.05037702161139175
0.0243753948589454
0.061194706179064196
0.5024257448895906
0.9583285618534696
0.4631518123955417
0.056013399159045685
0.05355566924748165
0.05201525567549592
-0.037790394866818997
-0.01890025526242402
-0.05157838130497566
-0.001627277129999016
-0.028139830483552803
-0.06280885474174569
-0.020581037671474112
-0.00862364830484976
0.009756251400239993
-0.03043535163470499
-0.02048611074626576
-0.05459747637674311
-0.03160578885747698
0.04257990062982746
-0.034551052858867
0.025343318757614388
-0.054247275042296254
-0.019584309018150878
-0.04159265148910276
0.07358986902083635
-0.0035944949577010315
0.10019542947480523
-0.02343508304437522
-0.08181561409799326
-0.04962382079660791
0.012214149252779687
0.028878858196526927
0.09040131684904143
-0.10105510868575851
0.05148179827142847
0.050380016326804646
0.059199744300147544
-0.060887375533724544
0.05547066071138767
-0.0007672352453979335
-0.006530193459657216
-0.009485221466009117
0.07696529649646594
0.06735643961426145
0.007718378628877616
0.013834428358448933
0.007935350389566501
-0.006341689544526255
0.0225227351042271
0.009677257156037854
0.060775663504053216
-0.013890571205629563
-0.033682436946986985
-0.05616448522828495
0.0004017831011954678
-0.07246773325978427
-0.08423279930913792
-0.0898688005552114
0.07677154454499764
0.006018940633609399
0.026442859420907874
-0.032401322000974835
-0.10422979586078814
0.01993731120835831
-0.07292005468289241
-0.014916411960653781
-0.04288037149297727
0.05529532010669347
-0.08627697932156811
-0.029080226316925084
0.03610511964375626
0.01145208337814036
0.027811512698523663
-0.07772716734840658
-0.013021410238545056
-0.02888504648361345
-0.05592311777161059
-0.046320848186643254
0.046190570690506666
0.015134501467358882
-0.02962645285921219
0.09117950187322821
0.09309140410923922
-0.016572314777574898
-0.006778191598052774
0.008240774557973538
0.012956303369415318
-0.0625121790906105
-0.10015954382587089
-0.009513421513430697
0.0590412888903359
-0.004472888719382004
-0.12856089824783332
-0.013972576158027307
-0.014064069265502075
-0.012836829006698592
-0.0458467233700422
0.020317143327439613
0.02556524769374048
0.022151659878204735
-0.05559203492158561
0.03956548382496147
0.05481500612089041
-0.03338053833510139
-0.025314942800906733
-0.028799493499808062
0.04029895722138578
-0.004196995413762182
0.027686585557738827
-0.04733696508422999
0.05366290219405572
0.0025019971639668455
-0.027030093524575072
0.01447662698847411
0.06242173935505875
-0.05571352409791556
-0.05987653998214833
-0.0021515510580957255
0.01323432852166464
0.10901433582870973
0.009149450846289443
0.01894440928578603
0.020638239334409853
-0.03275340093688956
-0.039633616419364866
0.031196983859165153
0.04587246263508051
-0.03916550304670821
0.03882118498678043
0.016354710996157384
0.037291681841984226
0.06170851066634227
0.05498166248191209
-0.058312769846378544
-0.07916988706070938
-0.02397516528141895
0.032831635891777795
-0.01238254440964406
0.02153708829933902
0.05851541067103311
-0.06969599068600013
-0.015333896009730839
-0.034394222436546086
-0.03882022441038876
0.023601336347819295
0.08018624048512972
-0.01956393460609453
0.054893899690117647
-0.09094151800550215
-0.058970500892563164
-0.061941683979139774
0.012073502032022173
0.047714603712415704
-0.028905309956957045
0.09221840062559936
0.45281468298642313
0.9173161822325447
0.4911737374678624
0.17020060446790447
0.06488975396279752
0.031247915610224882
0.025285784677022045
0.018734518357868362
-0.017379362956210894
-0.0658234455794564
-0.007246049545096738
-0.06958429626211933
0.007472105794936565
0.038246806072827544
0.04306951908614987
0.02794326708452227
-0.007233612599094927
0.10843435064636348
0.02954928733477218
-0.015436273407436765
-0.006552658531278008
0.0436121822375556
0.040854937561123135
-0.07585428757202389
0.016872942838146388
-0.014237425235882143
-0.030258131287915647
-0.06440558193613326
0.07568552353200546
0.06511449948817438
0.05843373559321407
-0.0018125664516480567
0.035504351856337345
-0.01702136731435363
-0.02525700785657949
-0.08691886498100283
0.024112245163873128
-0.020495283647082127
-0.04742278832536193
-0.03784600571339327
0.01993662548671241
0.05714771288692716
0.008665175317060875
-0.08666987397150473
0.051308695891171846
0.008810267062534292
-0.017550920064780734
0.012105007401283514
-0.0541089933731381
-0.0262575370350577
0.07651649112272117
-0.003858998185467228
-0.05126529811876851
-0.041571813529716006
-0.03487342592348021
-0.0036814645442743727
0.012134904571292451
0.010420423882689218
0.03267261278370439
-0.05335898154645268
-0.006729315752629326
0.01628315888181863
0.03968524914756188
-0.05082504713309482
-0.018221647539800944
0.0486256724028555
-0.048163542486500066
-0.00611017204996046
-0.06735321780634729
-0.0963619372970585
-0.05606783527218087
0.0205454283874243
0.006284674866184981
-0.13668748747602735
0.05014280726732592
0.012753803221621042
-0.09220244752553641
-0.05145280604273931
-0.0024444368267514138
-0.09530525928190577
0.025532756080982124
-0.03880399605246974
-0.03560719595563702
-0.007601424384255064
0.013978854671214342
-0.11194348093754275
-0.011579914126267538
-0.08611062964658597
-0.010568166351122158
0.014103388410768001
0.0003224671554193958
-0.0024439956291816864
-0.019604252012927176
-0.04314897627897498
-0.006346643144521849
-0.015782730500285082
0.0786589762047853
0.0072776441419854735
-0.02779910714342277
0.04588154651001486
-0.019369517048426373
0.019265874570452275
-0.09454400668104103
0.006370940664645378
0.020839826328476956
-0.007393516549719873
0.06505897821923855
0.02018130486522709
-0.006744993012319563
-0.10485999994917128
0.019279983319977954
-0.11204471347203118
0.07342394601788678
0.06306975992442106
0.014115703574494098
0.07122863253175239
0.08478351221390834
-0.0461814619338301
0.0006133197839073572
0.0752661196804353
-0.0035797104489450338
0.0419550206866517
0.04929257423765371
-0.04254429880450497
-0.043362168216627944
-0.03602506750696005
-0.0029378664038354745
-0.013156790540577014
-0.06058409445233298
0.008559689388034591
0.016888807567107048
-0.017100079754957306
-0.03670062119756289
-0.06406337341591634
0.06560354632513186
0.025264227685688114
0.007422616944266091
-0.030578182928783698
0.027308874214800667
-0.0485178092363647
-0.054018696428578976
-0.0700285753530769
-0.00037620299631464424
-0.06522547847223618
0.10715982159764895
-0.06926633109797721
-0.0463980593163888
-0.023198638842900174
-0.06284349229869311
-0.04915817211704221
0.0704844405892052
0.06357793645892397
0.029782086904019175
0.07717415368649988
0.051453891169987234
-0.01193906407215179
-0.06693814288465588
0.008119441018950992
0.08759554006792133
0.5206395045604757
1.0192998048265964
0.48575992257294176
0.18453750681685205
0.005702722863456733
0.0302459579179542
0.07235296240181346
0.019813962067492138
-0.007574668565815518
-0.03284805328184836
-0.017441120785153686
0.08238760864511183
0.05851089570661422
-0.03346820718229919
0.04899003798142444
-0.028804824365774563
0.04967118879201518
-0.004065305730428819
0.014442422989179951
0.04930824100352069
-0.02381940425841764
-0.026819141858352727
0.012118658277622693
0.021727108325632013
0.015726392460756647
-0.004926499743242617
0.0016538317728741357
-0.03924447845779397
0.12071413048111752
-0.06072661762645998
-0.06492983091251424
-0.06230568524968352
-0.002319846922984695
0.04352639158669934
-0.03536943583580698
-0.06447715818581916
0.013530459110366178
0.018305659755895782
0.023686183057859845
-0.029623149688410823
-0.04978701058554311
-0.04532170843236819
-0.004261715181461009
-0.05013247027232212
0.09538880527615017
-0.02025780245622938
-0.13584304701484304
-0.08378089697099333
0.001139239256655138
-0.06130389676439192
0.01267144526754676
0.003913950356981793
-0.007220532561591008
-0.020766922382379042
0.0014295268685203403
0.033232798622807286
-0.016751694658401747
0.01073535110249023
0.06943071321146971
-0.04847416086750375
0.02164531999077001
0.025547219299178154
0.018522866515858473
0.04442542626298907
0.016008151197449336
0.005907724076281839
-0.008560206209424374
-0.018166109393498105
-0.013038982019450779
-0.004877115392961346
0.011202497275449912
-0.01538070908842924
0.04281383655685326
0.03494063036406603
0.07980384405342832
0.042701532686951954
-0.06999774875597813
0.06803216903960438
0.013936367187184563
-0.022832088584899643
-0.00621050331202448
0.028372278607335728
-9.703040302869513e-05
0.05300983707981848
-0.014251744462013882
0.0134435281371982
0.025212840488331764
0.019382642369844518
-0.04496781561005607
0.03609282418004608
0.061561102924693384
-0.03195301043144265
0.05113756058366514
0.03514931542483683
-0.010357855778368875
-0.06225672413659139
-0.0024226099671467746
0.038333523159190926
-0.023172692763164755
-0.057558473976703106
-0.11934576293366342
-0.015189102168027133
0.026447751083663065
0.05042396601195074
-0.07592527745706677
-0.05867650703904457
0.05150311604410791
0.019285904876389114
0.05205887048223327
-0.05164244395557454
0.044365065393167785
0.03469181225458106
-0.031330175756153426
0.008421436688499043
-0.035870812104730344
-0.09070381551365096
-0.005854172473664995
-0.012896556082135822
-0.011447370271793926
0.02139756389801103
0.0581607349061306
-0.09013733111188629
-0.01204493522107694
-0.01636733802346898
0.022535642843460806
0.025559185056074685
-0.08621170288338582
-0.04180208947762667
-0.06491681326492206
0.029553993446841394
-0.001047413243835799
-0.0021531578435962486
0.006628235687782736
-0.04045309548389123
-0.08189437551628315
0.013546869799043487
0.03406024399004322
0.032760758155100766
0.09225421575624637
-0.010638311004293213
-0.04923170194259312
-0.07729947072481946
-0.08937766433465345
-0.02652575747641501
-0.051045123538682194
0.036871860633179966
0.011479333883487382
-0.044816392513708475
0.017728185303531135
-0.09007227614351933
0.09973047391443146
0.010015449602463021
0.02256795074404644
0.0041407933205003375
0.04504779465017795
-0.00827486553311666
-0.0022078320855044853
0.04092023698485078
-0.029931374860081923
0.06629616742631694
0.5160062736700122
1.0570592974813466
0.45776632539642137
0.12111647274896965
-0.014753221354727905
-0.04187302304346087
0.0410964636141478
0.005548718777633393
-0.0019256077236519276
-0.016648233854195484
0.008684406536467336
0.00649869579830387
-0.06114222082062564
-0.013546395274718355
0.038336201502348434
0.04850797944046747
-0.002987628357279537
0.04348772135714362
-0.02043258231909284
0.05621247386634999
0.06416512693409983
-0.05743038440447669
0.034297766820384164
0.017675821290312782
-0.10090192957126787
-0.06527662550114008
-0.0290498872007974
-0.05375160181074921
0.07458401377524541
0.025984977002862508
0.0369077944030831
-0.05861045209592691
0.03823892611166888
0.0005006090723174625
-0.054163575886265185
-0.06569156779931595
0.04090333229604252
0.05054632738758613
0.051782333651232415
-0.04150219406080643
0.016069381140856553
-0.06499091448259697
0.04473497351791725
-0.013791697478942076
0.04899690813324513
-0.010106536549223836
-0.03455081273873053
-0.036405005495002606
0.018857576522992702
0.00044101148224181196
0.007391175887251841
0.040545334289867924
0.018966247626751837
-0.018868915120031204
0.01322189761570779
0.011863549025114798
0.018724541505553378
-0.020320229061362074
-0.04745583075740618
-0.048563726365928726
0.07306731076758066
0.03317511772583379
-0.0598712461555749
0.019801161993578998
-0.06629756248266563
0.023527242252250904
0.038286561564471924
-0.0025082673763708752
-0.0043766218049458
-0.0030343591988944343
-0.005920190065548198
0.03830210452416949
-0.01353124210025484
-0.03800083115273197
0.04549833059517105
0.011277651741078733
0.00712335759686665
0.06698337762038124
0.04475849510152367
0.017047931905396333
0.05018899394324893
0.05416127532514009
0.042955296165763907
-0.060044304214318514
0.03471698817301785
-0.007505157818167525
0.02862230778195475
0.03465819737151519
0.02158765353560873
-0.06453328909294363
0.027446114839651356
0.05188488926478849
0.10421702694229368
-0.002984827330504197
-0.0012952423844200481
0.07573662571199728
-0.04118460625018756
0.039330066969293975
0.036016887200556166
-0.06424618522889883
0.012869250786106174
0.05095200230726225
0.012291710976087954
-0.015179658211499296
-0.05554275188849727
-0.003156458248700228
0.07117791374115073
0.021411615289745115
0.01273612446793305
0.009310013822135938
0.02460258379571175
-0.07615835998510245
0.015332687990021732
0.08666595909544743
-0.03319531688743218
0.0024751512534562517
0.018979749688393208
-0.0010303089764316414
-0.01977309596652309
0.040519140492896524
-0.036229539638435164
-0.035493287833357264
0.0719803720446352
-0.01833229293081134
0.012663830825476396
-0.06604624862687193
0.025196649805324656
0.0883964305272586
0.04869082269729885
-0.0305344886998182
0.025610314309095286
0.03126610279052507
-0.0415203616412497
-0.023964971581319466
-0.014432730440176296
0.02278846424248203
-0.014060640075739995
-0.06323448596666385
0.04114762577503411
0.017906196357243023
0.026451192731121953
-0.008713413127632711
-0.02325180776556138
-0.03321852860729561
0.0741088375866571
0.03218673794397507
-0.0009307626915657247
-0.02369646229235317
0.02171526947911064
-0.0035991607977055745
-0.0018167722297194968
0.042745184771646204
0.17262883353636832
0.4665473883702664
0.9964253156550352
0.4053071610773079
0.09412291632450889
-0.003755217121849687
0.0673503297115111
-0.010870742207419916
-0.06334830411755375
0.07698071173856372
0.04032206927644422
-0.03625517427561077
-0.029613305792929152
0.016912275824711002
-0.02386678789197553
0.06444117996118658
0.03170467860794275
-0.03182650084968091
0.0196483676341887
-0.004320346771918231
-0.04487369992929245
0.03523488362046037
0.0530345356478322
-0.020332236346139666
-0.00846021788128599
-0.07486121553285001
0.07033545754279051
0.030636587411402284
0.007585473089580654
0.025504159066683282
-0.02119280846369013
0.005943359711147447
-0.07514432872379725
0.030693301643786437
0.0216999873153536
0.01632129368624799
0.006479279525613231
-0.07267207019019564
-0.031034553974236663
0.13894724249475549
-0.014891396858935783
-0.03774386593828849
0.07053203354481212
0.0839908777261805
0.03079265437650471
0.10789750446522267
0.061002786034037304
0.1137632615319198
0.04016816856619863
0.02546284255044099
-0.043990405421093934
-0.042985029700277795
0.0372768678863612
0.024007395974077833
-0.0605583186179602
0.007288539529386848
-0.01351108385256557
-0.03155324319322372
-0.02307392990726335
-0.005099598923669562
-0.07645141976589687
-0.06256555720157418
0.11693708414680742
-0.016441065300328562
-0.04543960704319404
-0.059127025892157216
0.004549353801984981
0.0794080090188425
-0.12542622312504584
0.013265907602638972
0.005381080558014291
-0.041120204526724935
-0.061942032176490636
0.0031026904908235606
0.06695553183319905
0.01553520990432914
0.008514439757433564
-0.05038202452207078
-0.018484199003998707
-0.08587645575605347
2.456097625854473e-05
0.045614904455333144
0.023514089998143937
0.013110821035585252
-0.03385663613352188
-0.0019394918478693414
0.005841652718385901
0.010967259783940144
-0.02356980253466298
-0.013073399862967473
0.11909494019349776
-0.008160189165797766
0.0702649455656314
-0.0017412854823530399
-0.00031723675197648665
0.0363912091478308
0.11210707221035712
-0.050121436107172235
-0.035711682499273305
-0.005582169108963067
0.0600057233074508
-0.05704317345720583
-0.02434502705872908
-0.011459082739851398
-0.013289664337146784
-0.030522594074141558
0.02475818461636933
0.009181818392820066
0.0855302166629972
-0.008731341998193322
0.017369365819089426
0.09098978113313792
-0.029153117034493876
-0.027862996822057614
0.021109682838991693
0.03390933658196257
-0.07266710246544016
-0.08123047863255975
-0.02181241875452354
-0.021342892572097753
-0.01074658316690858
0.011098318217068047
-0.012896597924077852
0.005790417346838835
-0.008516289277255297
0.09241226076519964
-0.015200744198790576
0.09139384018536706
-0.07897802487776084
0.02964637799856565
-0.004952852422077025
0.08799391301200467
-0.051590352471149716
-0.04981498302954441
0.023422151839051508
-0.05836669942036054
-0.002934967817420335
0.08166356280650501
-0.053283545920560504
0.009842309656993342
0.040728953414620725
0.0128173754254407
0.006995252622007739
0.06685804438979318
0.09179986203351709
0.03511204394254081
-0.08019989532417297
0.039589731193842195
-0.0004853565398226754
-0.029238436717889688
-0.04243755542008143
0.07110337262009027
0.045219011024852304
0.11722380101510083
-0.04325012513473245
0.0029817453627767206
-0.02898073471275513
-0.09185707204833729
-0.05260412411444382
0.07977659486561157
0.10283929062614375
0.5224417295284002
0.9322464416424555
0.5000384365531525
0.17825514134368575
0.042164947224936605
-0.03115735008714303
0.014559043114692811
0.050142063833551534
0.0446932358195237
0.027966363707911147
0.01228911734163327
-0.08550184894143494
0.045223845391293274
-0.09300322712347654
-0.01972583344752094
0.03746062473330105
-0.0667764299134436
-0.11925016352081974
0.07842987303859328
0.009406057944945817
-0.11402332877729282
0.0053896034049724425
-0.045383863224792154
0.004123858020917327
0.017881249523278547
0.016165385681067658
0.01278478015352812
-0.0013380749525479642
-0.01587445290761693
-0.055935231304768566
0.07410840546354235
-0.04104386270810121
0.016854208454940144
-0.06619593496418885
-0.05318024751563019
0.01292683011006706
-0.03792671272302803
0.03257419342664549
-0.11133117155836125
0.004317942968631496
-0.062348222885351856
0.05624624037458062
0.043867062815272195
-0.1077932634866889
-0.02488879846219272
0.011430893099628987
-0.015287137649118668
0.020128502204051907
-0.14954235052079867
-0.06156359406571963
-0.05587546552000088
0.051631858464621705
-0.04846342119544192
0.012374023218408761
0.09424267460258001
-0.003254140975264292
-0.0778285913756872
0.007783028477601249
0.0042092695721104795
-0.022356645293126635
-0.036602961854109765
0.022732918547160298
0.008164879185755782
-0.08777514220963926
-0.03347777622549809
0.04433271649025955
-0.07882247306084686
0.06980798189038155
0.07497867043228744
-0.052348584439108205
-0.004633446595010671
-0.04641345373870175
-0.06873960260836694
0.0018129984808155108
0.07209364329752706
0.049580156170386205
0.0064554219765869635
-0.021716425741225582
-0.12456808305105867
0.04367996439209187
0.011573035822128416
-0.08186668991162338
0.04079766975157069
0.06227583069276135
0.007212347761100782
0.05385489813872163
-0.035010050664784714
-0.01014057832638355
-0.007279184022579228
-0.00612115505306364
0.006073048405615209
0.02968984996222773
0.0734761655506492
-0.009269176346895195
0.009670061892612599
0.07025446065600248
-0.0007236177403696957
-0.010589867628931444
-0.09288127263573294
0.049358471786108936
-0.006417114022689009
-0.04239621454103923
-0.015675593377185864
0.04025625303669113
-0.012071754780180945
0.10820030557420351
-0.07071803071818401
0.03256225169899018
0.034154289613279105
-0.10391096023222475
0.023322580925475584
0.004802815189452723
-0.02131785204422284
-0.02495624933085792
-0.02483812384062324
-0.031048921090038973
0.03373622997503608
0.0396174660158338
0.01868289077416172
-0.05397959019245661
-0.0328520607864781
0.06879047539677853
0.07256134133255572
-0.05292400560167735
-0.011684382079792202
-0.018394211285944373
-0.05331174165114092
-0.003452004717372371
-0.06945721169672676
-0.05466471824866592
0.0026452874878898835
0.07941155225966966
0.038221725346076596
-0.045758208875304046
0.02352819547344955
-0.03193206632828521
0.08560336514920225
0.007450693765898977
-0.06972010613832101
-0.02466014117572211
-0.01985578721990461
-0.003034086105368648
-0.03824328371868141
0.03296796427586597
-0.01926354887942882
-0.0035959559637844096
-0.007267968355092011
-0.02018434738701515
-0.06078021094746412
-0.003950423014730561
-0.06440084981824107
0.08786685690889225
-0.03494784200304477
-0.05074369225687674
0.1146342307302873
0.5399939077630684
0.935823906059753
0.511244779019911
0.057294022349436015
-0.01605538606500166
0.022644211779391243
0.02032438060231008
-0.04032109939458032
0.054876977520899095
0.027296150280699406
0.09176813835844004
-0.1123853165107907
0.06495080181338773
0.03717990939823841
0.07693356393458094
-0.03624261953987167
-0.06743500895467854
-0.01764698087080862
-0.0910769004243981
0.042115252831814595
0.04476997152473389
0.07015214873774697
0.010661942878144657
0.05539764777550968
0.025684319274996394
-0.09106819422593851
-0.006989486838443916
-0.02638893090373287
0.04418310598480094
0.01186055894984258
0.07917430211881737
-0.07872392760639468
0.021661007167048232
0.009641906426160883
0.013367270092704761
0.009020311431904137
-0.012214402098915328
0.05417090993032086
0.09091654194718565
-0.034580381260618055
-0.10360428336163129
0.02999330032512157
-0.06328858265967054
-0.03231092983473476
0.06601384976808498
-0.005415473516883487
0.0017248474098188965
-0.052044210541276184
0.020201565170913108
-0.07490710137448568
-0.13054393099446213
-0.04017757863399683
0.018390449450864464
-0.048718432098306216
-0.02071169100529241
-0.059118783001219845
-0.0320198463403638
-0.02045804189831015
-0.02265859509919104
2.6914960018952917e-05
-0.07681686909503732
-0.0061432186408201875
0.053190386243369074
-0.029391797196121068
0.03800643448594087
0.005626531304857834
0.06785016261337325
-0.03167931691092795
0.10877889672840634
0.052956851586882236
0.07016770339862634
0.09518979116555418
0.02528502620870539
-0.004799998967693096
-0.02917700899350771
0.06807568695781545
-0.01475626107989457
-0.04744585995425663
0.007996566456140481
0.051402645528406725
0.06407504116571841
0.015805327283196984
-0.03345308735794013
0.05093156976491699
-0.009075666165479007
-0.007558712270627006
0.05929235962952015
-0.024358416488254504
0.03291246627047944
-0.017310402855231746
-0.060068981548229455
-0.07615797510734995
-0.05401092763516066
-0.018979583609872102
0.006904124493787682
0.024793392214794183
-0.0327214479909293
0.038475711278442015
-0.024212615477666427
-0.05509563210438794
0.020347170702167156
0.043404574685507014
-0.06163281863059821
-0.05766649935394881
0.026816254524203817
0.009636237835505108
-0.05640726272150916
-0.009488804765811404
-0.04688400454512476
-0.028324931682248252
0.04661070381498681
-0.024765834835222423
0.0669095762936148
-0.06218173732971027
-0.038038846117689915
0.04363980071601433
-0.04607553110149909
0.03678770492219453
-0.06325319729795315
-0.03675992656824894
-0.04884246978592568
-0.018635635179243364
-0.02866016741002544
0.07110959833091214
0.04374108949023331
0.021988623992132295
0.013896345885696732
-0.04952855184653627
0.05594823192743334
0.10192312054896602
-0.010396724133030256
0.005958576350875433
-0.08201016056410683
-0.03828272620005833
-0.020682097658402208
-0.04351131884658862
0.029343045768069356
0.029441514382647044
-0.005993020232986292
0.059556286050320366
-0.09758308031313997
-0.037735515322121195
-0.10552747208261877
-0.032625983274790986
-0.038100241772759814
-0.06382639927554594
0.03650859482036684
-0.020849609338497263
0.07447288624014352
-0.03400397247412539
0.0015701418560575622
-0.01251293833064231
-0.008503941755151491
0.06791815792501087
-0.051573467140428
0.08962460961534915
0.512155331597112
1.0238305900099256
0.5955666825122581
0.007953726451197171
-0.04802826677971797
0.04015610250086622
-0.02293181373031496
-0.10039462102446468
-0.0016931060042784465
0.01294508978275229
-0.06756594231957508
-0.08910219948220721
-0.051103158171194034
0.026586129163093192
-0.03210233054156792
0.008321560224158822
0.017412953107149475
-0.05463884554196207
-0.012536101010083464
-0.049881201422738
-0.042796979833896465
-0.03413474773365558
0.033086199523271236
0.030690452264379088
0.12434544594392208
-0.03902781649675229
0.04716387760682887
0.011452926736697592
0.06013236788575824
0.1085467213841014
0.05734540461801331
0.022019342726732446
0.08846188781553505
-0.06229349675521875
-0.00979500956581979
0.043566395184199004
-0.039979035768384734
0.02038112306886576
0.08423163344979478
-0.04189557831550333
-0.017461932983379103
-0.02355890629657922
-0.006495248463271064
-0.013697048109724358
0.030168553189838493
-0.027953872346157285
0.023241920058721277
0.055695427383306885
0.02862313256680505
0.018089405149805126
-0.06978649078681456
0.08357184069842565
0.016024158221941934
-0.011712848435647016
-0.060933886241202544
0.01631264533805923
0.07599183382692433
0.05868346638606084
-0.018969437209636505
0.042303726031285155
-0.04448756724826074
-0.03673327474152988
-0.033692188046537154
0.04502578015498834
-0.02182492334667011
-0.025981142638382138
-0.020680115263130544
0.0035063520692728573
-0.10512960914922863
-0.056458579146567815
0.03926554227935362
-0.01195293909373945
-0.031330895071098964
0.037422760663094176
0.009960859238361344
-0.05243352887405638
0.04675295148935829
0.02346467272026789
-0.06658506201817795
0.08625906620135865
0.0452398667923902
0.036170426448728726
0.05774624683716154
0.08089355811378036
0.08613836606268849
-0.002245333805946523
-0.04956880044579097
0.04093963558943839
-0.011245129549123574
-0.06552074810278512
0.012749756434558647
-0.045724527897022256
-0.10145075756703344
0.07603587311352467
-0.03350756185649759
0.06943889013849162
0.03559306404079426
-0.04191170455207438
-0.0721615519481693
-0.05732291423661251
0.02863005893492689
-0.012651015240022566
0.028070168406309645
0.0022013865316239433
0.1362779026475209
0.05220340384702798
-0.01208478949580729
0.017031600389341626
0.11470029319917026
0.08978216332759269
-0.006356882037516193
-0.05277675065632345
0.015227056134810874
-0.060592274325914235
0.06626267325839416
-0.0066326760383748525
-0.040875183152806666
0.021159899808862473
0.059878530598968444
0.05900264915135999
0.003020570080709552
0.08714689795548351
0.02276670870268684
0.01074883310227008
0.06985214481195758
-0.0025045778704097504
-0.0638549034311812
0.05522466884231739
0.02016411070406228
-0.02354664481366235
0.054552065528371746
-0.006654906492702526
-0.02220695265988737
0.03988649861656713
-0.01468252224579452
-0.06446287056312397
0.026255957738988873
0.04312607850556152
-0.05450701494715265
0.031516302796917244
0.003281059998461182
0.055963282784960336
-0.00014600954063533815
0.06253736676166867
-0.0650191100444314
-0.0192760516946814
-0.058562699802847264
-0.007965238644594837
0.025365585079166548
-0.09188902732373094
-0.02048788950760544
0.13016444497112825
0.08975097654004983
0.0009629166396697428
0.09729383324386535
0.03377312405110286
0.11273322513421369
0.13001403523149885
0.4972218406604403
1.0037202130424645
0.47842590997901885
0.2013430340598089
-0.10431767704986346
0.052505030654674906
0.029997903553218783
0.004200554072822156
0.04609903013390905
0.010496914153437481
-0.10424222967284989
-0.07273487112740641
-0.03660785840420038
0.00792722747046126
0.060431814680127774
-0.026815944018009137
0.01648995213602018
-0.008634647810298041
0.11762053699027651
0.05848351208976519
-0.044305918917025344
0.08287780811714707
0.023385414201129738
0.0203061223133217
-0.03323397587842318
0.02364574652431041
0.018623813700459024
0.023745741341332005
-0.01277428851412652
-0.027860138584393575
-0.06211861755467281
0.05008706405318322
0.06263002183525702
-0.07037301797386752
-0.008934636848324724
-0.009835202247252678
0.05086312207794184
0.02098059358550422
-0.013974192474518846
-0.06439203545039297
-0.057297688318373834
-0.035665597905422966
0.018422751707379444
-0.023298452525644407
0.005427670715080192
-0.06897932136863698
0.015388498015271418
0.03275447993833753
-0.029668571650169114
-0.007488682414387192
0.011090335860663679
0.08732784752880265
-0.0408859480982053
0.007387440550975114
-0.15892797285655483
-0.06608108512124351
0.04265942254201459
0.025270932031500454
0.030202419522227627
-0.023675472944951027
-0.0009321354029288444
0.03181344455195742
0.0130029000056892
0.016647426032021115
0.034145553004905925
0.03837055588889093
0.01277915358133247
0.06198113124324686
-0.05195905204092427
-0.019663975067063414
0.03640666208334364
-0.03369124757963575
0.019556754599794515
-0.06240479169012763
-0.013349698314541423
-0.035587712109313656
0.012246871083600064
-0.027107817984909605
0.010928435247973134
-0.056338224970330766
0.0031327435821294027
-0.15429094860094225
0.03809739033486897
0.06210294914203166
-0.019257798224050608
0.03490857331099082
-0.011552192135511168
-0.01307136140285935
-0.0968888818178138
-0.04650553021721951
-0.02751139903485318
-0.030771059789764545
-0.1274768107789189
-0.07206805400306898
-0.036745985972789
-0.024059192102109297
-0.015791468754130435
0.05956800598762703
-0.018641374827709604
0.014575312991061443
-0.10463901774907368
0.048774850391799005
0.02636481088989724
-0.009191838740182567
0.08343435128808147
0.011222128726153418
-0.06559730766448588
0.0030512789735331345
-0.029304803166936122
0.008851840237227886
0.06289516787409556
0.03613170595894837
0.05685488495229557
-0.0005372264777721913
-0.056752564519817354
-0.041322045831742094
-0.07274531008172166
-0.0030347051493025932
0.01351956048266757
0.034662230377322106
0.06314058873389881
-0.029244140956761946
0.0753255281745992
-0.04068920633046324
-0.04489046643380548
-0.004841353298044875
0.00987037626142338
-0.022015250755432297
-0.07125870791189831
0.01919660734924225
0.054301455551566825
-0.026903424305005554
0.07300353133577875
-0.017348345876433798
0.004392935702957381
0.028292421241074818
-0.02338609908049245
0.0761045061109442
0.08622923257578213
0.0081440068415775
0.0036921857035343997
-0.08078645384212041
-0.08415622467422235
-0.013082388498758209
-0.06860444484962784
-0.03848240291469926
0.05565912325575517
0.025884291163032876
-0.0614043990452582
-0.030797105622407478
0.07810062398568962
0.041511011965538365
-0.029173569490513307
0.023582405582189304
0.04932137659272918
0.09762158245143499
0.48718901173085305
1.0603848075638664
0.46550318369198174
-0.016815135002708745
-0.037077293385267905
-0.04092722070542108
0.0039554599352190035
0.04110365212068631
0.03320330087995216
-0.052402154181889475
-0.09096289384392582
-0.07673602413743902
0.11801107175084416
0.08043937108940125
0.04967369594484955
-0.021871553590854173
-0.05011877969689624
0.018222678880302816
0.04424314190203335
0.0623056874872499
0.018846761652773644
-0.020513293639294824
-0.05612639371140116
-0.03413005562411603
-0.021123513358270077
-0.03980780840722739
0.09121160547885393
0.013114859977100102
-0.06301287841415526
0.04627010927092923
0.02833739063142103
0.006972955373061277
0.06021703885972949
0.006389769240565803
0.03189096852100045
-0.034398768976628184
-0.044756206016558595
0.04575409293956925
-0.04808890921721836
-0.11474126136451518
-0.03751304620492032
-0.02420551629313096
-0.024440895069075416
-0.031221974332779026
-0.035526840530325364
-0.0372075213714201
-0.017628420342526104
-0.0400469798396523
0.09892934716486132
0.06367205825407167
-0.04095515009699084
0.048879966784553426
-0.07691213792118244
-0.00229415830412751
-0.03134239810528871
0.0344507184950066
0.07169660473625906
0.07649585950414885
-0.025202999198018657
0.06957817660282163
0.10966109309683188
-0.000552847318888292
-0.005819651568017485
-0.06516352481487228
0.048213777874917915
-0.04931154435047163
-0.11550190441845261
0.0122265404745064
0.006222261045134481
-0.014469692975837249
0.00420270529450841
-0.010098563851478452
0.033386817413310954
0.07358734245751838
-0.02013370791999134
-0.0006643621928141134
0.010202577181124953
-0.01698365835935112
0.11173653555464301
0.030112168294932202
-0.03162900542703447
-0.015021485258544146
-0.02938168263493291
-0.053876569157120635
0.004475436395654148
0.007793057445357742
0.06473905967399957
0.046775341181846855
-0.027734780230986102
0.031115295353816703
-0.015855414793316598
-0.04259145560075426
0.008334868509668324
0.024068665594207103
-0.08749701791293522
-0.02072755113721715
-0.018673201349691772
0.049183171794654326
-0.009263305283062752
0.014177995681084486
0.001826360763955321
0.028146008396678662
0.04318916491146828
-0.056052168265824744
0.03749593120061277
-0.007727162192814415
-0.03925462681655056
-0.06924737908471285
-0.03807940128167592
-0.016577326779810806
-0.049589923583941306
0.09625420830314597
-0.030760473099184032
0.03024636864173761
0.026502536971159535
0.01511845070363807
-0.08376531861415326
0.053614364783781766
-0.03646411592267753
-0.07429417638379243
-0.09967773269876208
0.0038604689054704596
0.01254862657953254
-0.019261264111740537
0.11120261898054512
-0.010732777798964357
0.05183085047887284
0.008672647551919889
0.022029680205718244
-0.04004346179902646
-0.005454214140935968
0.017022121020343672
0.006246232756419622
-0.006666577148830637
0.015008655928244055
-0.07052171233090758
0.009906190495759363
-0.006608229803463391
0.02836514535848991
0.04990247043743783
0.024636378161723926
0.018754927400772992
-0.07597353357738365
-0.03183081475434113
-0.015922960446736065
-0.0392655497068467
0.017124013612463327
0.0799951635834459
-0.026154176276451658
0.03295526454948307
0.0015936258435545005
-0.026407169760352046
-0.032782665046392316
0.04095733089846008
0.000991363079317272
0.0030448720254753793
-0.0020886892875633866
0.058249058752031325
0.128034626595847
0.5123015288567387
1.0416808940877504
0.4244447933989212
0.06257843330863264
-8.027029179555913e-06
0.0031048177107484607
-0.009924067242604749
0.005224408309067948
0.00938105003488861
0.032068956094888766
-0.059413442449774305
0.06965117342217565
-0.030930853536112354
0.04545762299090125
0.017490600023097314
0.01603760008698053
0.09958073332601727
0.001030401658362322
0.026892200322784533
-0.020943343409493078
-0.06752303186680726
0.006527712471197969
-0.041286064589895186
-0.05212570085105705
0.012995161308154797
-0.0033178546415196437
-0.12540791301898976
0.003058931503203948
0.03738438870628443
-0.03979877962709194
-0.06271573935926848
-0.06458635403406249
0.05995342882487362
0.01523801314788991
-0.026916332292682504
0.025312776361433465
0.04165130251782992
0.051096518242168834
-0.0016292288136608782
0.042810820683662175
0.0021241585801360257
0.05022638526630914
-0.045726963325462625
-0.021017671772510772
0.005243351566688001
-0.05411100299446597
-0.009393734025595466
0.018274635029005882
-0.021274733585587118
-0.00631651959176332
-0.05059425538842103
0.01621392415697259
0.0008242234308311826
-0.015831290638708823
0.044462654275850964
0.14658507393968967
0.034329376393179505
-0.030494585601072335
-0.023031374425170708
0.0659575147639518
-0.004366582215151429
0.07758652679105592
0.0075029516562683685
0.01581971930666497
-0.016365204029964053
-0.06357716802477985
0.004900805186691395
0.005968281190938948
0.008182089555313672
-0.0487899171662397
0.059746896188590005
-0.03305615099460228
0.013261783224846788
0.06802370127390045
-0.01615817903551297
0.07583874606783725
-0.04591787812082421
-0.04340798302103105
0.07399575760097073
0.00234213976368351
0.031499136771755386
-0.0017113700620616026
-0.003117752797639578
-0.023503395985179643
0.05383445418085678
0.00470298186547625
-0.059044886931822506
-0.11935894773924044
0.0044962873504351296
0.021155802751875244
-0.020473945485063403
0.0732826132185215
-0.06854723237380483
-0.03233338333151868
-0.09655614345880044
-0.019970327785413702
0.03972110982235041
-0.05415142736054185
-0.04165785908282599
-0.03228696541449696
0.03417161174937905
-0.0116856155610045
-0.06654928809016168
0.015610871403039617
0.00609728581451707
-0.010177244736692995
-0.004521625110400319
-0.04335797675740841
0.05938663973061817
0.015820745787328123
-0.06668004817019212
0.0021613345427725305
0.0731214299050875
0.022020396913820083
0.01651304986877122
-0.014369538404581512
0.026837378025919262
0.03244479671631262
0.01408706720705143
0.08025085562247908
-0.00798207191825452
-0.01043760415614725
-0.07349543085387024
-0.06017195928868684
0.010227116315205977
0.031143504646221443
0.047562136639494705
-0.05802381081320827
-0.046505798003779235
-0.03557911393239089
0.07855639071166232
0.022891286092928245
0.0058360709182141484
-0.06157287878454254
0.012958125899205575
0.12261853193969574
0.032052128028069275
-0.04242759554714145
-0.004236073110032277
0.027521362975968685
-0.04058817638050931
-0.10318924811643322
-0.011594296632059856
-0.0787638264088288
0.06948171300766864
0.017523814600560246
-0.04247937189965448
0.006068830561001121
-0.04761063869189174
-0.08430594588775597
0.03461206344350006
0.09066272045232682
-0.07410859492983944
-3.4381273403287546e-05
0.03729750194842282
0.012540448447926046
0.03598428150058463
0.009120873735747324
0.03293735315233781
0.5055082921188823
1.0158121800137965
0.51024613104362
0.20586110126528767
0.03973190677160271
-0.03614791383452753
0.04630101364198736
-0.012335915692186165
-0.023456842261941505
-0.15065785490850628
0.10429185960547854
-0.02633414887102959
-0.05151401844463166
-0.03588454525685287
0.0721805596466084
0.01600945463439175
0.03337552714967224
-0.05080767083450079
-0.0484528885759024
-0.062362689221962524
0.04959888773421396
0.13010367194065128
0.042885998241652734
-0.05033821214488961
0.02134089808432725
0.13879985697011513
0.16074900191579716
-0.08334468137637563
0.00791023872029691
0.10334328479113286
-0.012271801091418596
0.022791577974542218
0.08844544950594366
0.059115089886233485
-0.016268561326845923
-0.07576889704148902
-0.06004163513029376
-0.045013054914250665
0.06764265994225778
0.10313767026765452
0.05468965804743227
-0.049986737592672734
-0.015988827640639358
0.06289297244697867
0.030034585949491883
0.06002860522068196
0.008442983304178609
-0.10982123576290148
0.005608043847776405
0.0007045912503065052
-0.01809108574340355
0.0475370666536091
-0.02795609455740853
-0.0439308273403449
0.04528326259596146
-0.024183199671843295
0.08812347186944447
-0.02282580458913806
0.007242529578901276
0.0648847675852193
0.05821713106084081
-0.002277460523154305
0.16426092028373507
-0.042143992018390704
0.08130992567974717
0.021579956712868553
-0.03221571885102669
0.06215077661374091
-0.04112109275837169
-0.03176163815322994
-0.05534828519640522
-0.012903714870506728
0.01418692336257105
0.022682618542548886
-0.010889518543797052
-0.03418521936871239
-0.044035632379095774
0.020712649985925494
-0.0367623263850672
0.08418838367541663
-0.022333400728649016
0.05661527165658539
0.005096603523810317
0.024194368347571812
0.001100954538687664
-0.01713359974480845
0.09071022090390053
-0.026157975122374107
0.061951748816412994
-0.0647880907167254
-0.016947108629412854
0.027080371433591034
0.027900155041732586
0.019791904370957746
-0.0726730132400392
-0.015270776858236768
-0.06997724034241308
-0.003574530630737228
-0.02048605300764969
-0.0017757745514324092
-0.02257539370227199
0.012049258892771123
-0.006975818159124653
-0.006514699023813692
-0.059617555047383454
-0.002067082999804298
0.021735214538078834
-0.053470046473465864
-0.01630519116396893
0.017934253909238647
-0.0076491544598341265
0.027345417580291832
-0.12129974309478281
-0.011239464199983333
0.09612322152034611
-0.004170383543755481
0.04059476478437971
0.0077548299980941164
0.05535743205994875
0.06646824483943616
0.020714392064975322
0.023946388808421832
0.09513680954587213
0.012960180979500514
0.025397392404264665
-0.0014615653275251266
-0.01641611897393537
-0.04503091227874198
-0.07825609452224618
-0.034603965496084285
-0.057251450410496854
-0.0642937962432185
0.01006554979999534
-0.08342423374494139
0.025873095892924265
0.05880432907534964
0.05677502506272134
0.03123974560128777
0.00586008155810427
-0.004342022589465249
0.03934403954708993
0.014199580219246125
-0.06928167967024451
0.0343327811858853
0.06020356511897959
-0.005982072531128765
0.0723598523456314
0.14941430149863563
-0.05236124133800493
-0.01080107908230622
0.014463353048200026
0.0735862246733833
-0.020168524357773353
-0.10766977902179209
-0.0754677702484525
0.058691864935813146
0.4838577267540947
1.033246350889172
0.5233930942524881
0.08654104939386323
0.06442530937507394
-0.05278242245305912
0.09429772197909735
0.0011879290650747246
-0.030736860596326288
0.03580813130088744
0.023716716166662842
0.04289627617314024
-0.00035945236932732525
-0.030963064687270576
-0.014109684514349652
0.0067266545659085825
-0.09025164241136122
-0.011694767415793048
-0.09322767096140094
0.0032450342570484107
-0.03792677767466571
-0.038477413895365666
0.04882725551192604
-0.07190731805876617
0.016894764909642954
-0.10124200091913137
-0.030211806393279667
0.061500674913198244
3.467003462223953e-05
0.026112315604939897
-0.11237253426498156
-0.041028741481212
0.009766768574439024
0.002418948620016001
0.06740617016688537
0.1231738802323865
-0.0568667631971369
0.04055524101316586
-0.013348904212808016
0.02751911791441533
-0.04973754144128571
0.01352702229070469
-0.046513326074123396
-0.006824846953833183
0.008067666614756422
-0.07023478733980677
0.04459122277203002
-0.0032430662015547882
0.02912837864953871
-0.02691734888444419
-0.02384773678798749
-0.012637740860487807
-0.03169254544036559
-0.034431270179684656
0.008063296159617116
0.020277198702844612
-0.018028230660080597
-0.02820504208738589
0.012029652455768132
0.03272204253265888
0.051612562169595755
0.03553184642045482
-0.09042159335461102
0.0011162243096306443
-0.01475798919632643
-0.06295994866422153
0.07266897016049059
-0.010470144152129317
-0.05510519684815865
-0.07772851616795072
-0.013140782499675452
-0.015778111770410413
-0.032595324487462524
0.02933116329134826
-0.038090829093041484
0.04437065948124156
-0.04236292510002859
-0.12656559961384553
-0.022592089344458693
0.06827716284958434
-0.026735268223339676
0.07704424681267796
-0.026675738521835773
0.08734388888871923
-0.05469972329858184
0.07152595172899184
0.0653875410544814
0.04626959491216712
-0.00044582125905408103
-0.03174183545667707
0.07628258411387201
-0.028919440400212933
0.020889408142759424
0.01863432820995082
-0.07062819311467262
-0.08253149615187627
-0.02431310505194602
-0.015570094888311327
-0.03367946569016309
-0.0274628967945876
0.008535905974326106
0.028505615496919674
0.024749212184981127
-0.07676304020449864
-0.08172573424288682
0.040656383631731186
0.004446841634761238
-0.0098285659691173
-0.07245847368561859
-0.009056682079464992
0.04202215298795901
0.019102777708234736
0.07481708505403338
0.012297714268690363
0.03882923429433206
-0.046516931445195586
-0.019072921156624914
0.020175141063502128
-0.007237827407408199
0.04765641738756411
0.0736137379667199
0.031087460827473663
-0.06201380748019502
0.001714364980103577
-0.023612700017036956
0.08470672239667662
-0.013476963027602729
-0.021889643232515237
-0.07266676604786837
-0.02844155258901462
0.012154448550331227
-0.025028809921361635
-0.11297811835316662
0.062225286999063545
0.06188292654733721
-0.02186442909957595
0.07487677803326769
-0.03810618722102398
0.01120583064597526
-0.0017877063635472175
-0.004396152872667863
-0.022585022913765886
0.06164038833894586
0.040517694470916084
-0.01869073543831942
0.06560788097715131
-0.002875273371883314
0.09520327411585007
0.0819260232585393
0.06221985573487965
-0.021911223953413432
-0.03521139660413445
0.06287463627593715
0.02834462196520727
0.11743240174816666
-0.10415499177440826
-0.01851910916935904
0.12402487453020028
0.5819495625011479
1.0967888755052908
0.5003179987732881
0.17825796436172714
-0.06084160679341895
0.05887269191303082
0.07193275481868319
0.03631469553955465
-0.044313073902712316
0.04737565389931049
-0.05809707403292306
-0.10428025513942399
0.03202703437082217
0.03246157240002631
0.13239141642317204
-0.00014684149156625353
-0.03467100647601325
-0.0930309907114638
-0.12590631629362556
-0.019380813116852684
-0.02631204350097135
0.05116427610273701
0.025092087100779814
0.005819560964243518
-0.024588700564264987
0.10237568121641896
0.036896185024380676
-0.008758886268304025
-0.08579476421545407
0.09604659266601491
-0.07220615508703378
-0.08550769548560233
-0.07880643225850435
-0.009469778471924666
-0.0412991565493361
-0.09013831058494771
-0.11165314017391131
-0.01678702712992593
0.014709569887160868
0.0425502387963609
0.07467960771635447
0.011606507485928712
-0.04417233748859488
0.029437171156020223
0.07313110035675258
-0.0002980688833360302
0.0065563220062073635
-0.02356003188342545
-0.031071876574396
-0.033758454423477344
-0.030499129199889154
-0.028893835740591425
0.00570753356765065
0.00033214566048119995
0.043536088142782675
-0.049404632561844436
0.011418167914451957
-0.07475235912302335
0.07883495499207735
-0.014919292980604435
-0.05588695177206093
-0.165795410443935
-0.0008308666831485264
-0.020041737245498018
0.05630959404921591
0.019767484571893354
0.014915676596064084
-0.07535878459546377
0.11048764159349678
-0.06345793558827233
-0.09621799391330828
0.06535613511337517
0.0025335411302463418
-0.03605423338834356
-0.001188757336576861
-0.017321695383076107
-0.012486155766559209
0.023763622961910726
0.03271820314193797
-0.036249259676448015
-0.0028672855816849604
-0.033900630146663384
-0.0026677566188482342
0.024291330382381147
0.05856392172143443
0.03848068415907396
0.018023726857341053
0.08518059459918319
0.022675434378374923
-0.009410017538165602
-0.01550683962281163
0.0845229858001682
0.006570956138360878
0.10548919727508431
0.024016648644321556
-0.020495830704787842
-0.055502866105509654
-0.0033563878194919627
-0.0166141558284053
0.03171708449812507
0.012746758957334887
0.0420620224483574
0.0072032883034989495
-0.01618886877657814
-0.03991568337886544
0.06515267752851596
0.010787913209060956
-0.08564959004448519
0.07046870511537838
-0.02276682806310419
-0.07737599426367867
0.03987960674103736
0.007667031866844145
-0.07541511268259064
-0.010314148180606383
0.010533600177825425
-0.006341453206579008
0.0013768494499715417
0.1271524224383771
-0.007867250728207533
-0.05210629867565464
0.014513276623300961
0.02243593087768285
0.021513660165477056
0.0192225435969537
0.02499519817248276
0.02466034231092229
-0.0019498180381350917
-0.02883459924789146
0.06298194388862557
-0.016968904765171856
0.0221550283472028
0.011034644137542314
-0.03770252301614521
0.039620566851520295
0.019453604147004505
-0.0060562533104541955
0.09434655308398932
0.07551921394416972
-0.047601999235253475
0.0739742539920416
-0.03722981770181551
-0.02215581288871736
-0.01740075212670802
-0.002239262227100752
-0.12131969440442794
-0.08798130379134306
0.03370639171695294
0.005537500695566149
0.02697467621477484
0.03572509007307894
-0.03413021525354975
0.008096578703906586
0.07271483774332105
0.023423540265428658
-0.09545338638371983
0.06579355784333268
0.48267867133566145
1.005090573854782
0.51430294912775
0.0825078194880856
-0.004863787932821702
0.049607113198420816
0.06149927064947323
0.023954820428177665
0.05156109537866165
0.03837175264030613
0.015732084057099215
0.024354596183081893
-0.05656947255980621
0.0068983410317493155
-0.016189372700398712
0.0352002502314215
0.01484692565925077
-0.04315836784476395
-0.021191370466841667
-0.009241769980821808
0.09236543394545843
0.07067431752638467
-0.02503671583808431
0.01576622865837067
-0.06406453292850305
0.03071250461952817
-0.010414174778839658
-0.06950012311052887
0.011346340096492375
-0.05393828790025662
-0.027376860909827324
-0.005359187299686412
-0.1341805060888239
0.01477913740332451
-0.023274995513061926
0.04768091296238504
0.055302918066755226
-0.023486551153059778
-0.023995493441619598
0.01975874273308158
0.027719090474568293
-0.043208353214293116
0.05881577258887613
-0.009836071968541058
0.0248947314943101
-0.04659600045114379
0.03649752708181491
0.07121971218953158
-0.04344386870929202
-0.013678012829271592
-0.009282846095775447
-0.0374692122152134
0.03962446486058378
-0.0052849412958446765
0.05579219674825573
0.00880228071141921
0.01596231368753077
0.02540513724105878
-0.03760129502731496
0.0563241277507908
0.030435783853667266
0.018702929400107118
-0.03338878712395329
0.005056901784453973
0.02995597790320852
-0.045248408106440624
0.07409469872113388
-0.027347433625962633
-0.041983966986956674
-0.022537554793421608
0.012243614089236313
0.07109457340885754
-0.08679464585573664
-0.02852007284907231
0.005065079142630309
-0.015906919902633772
0.06295857534381354
0.006998517425623337
0.014982944642276936
0.012677192466827275
0.0693016651928119
0.10873083170491847
0.034809031488398805
0.05369878781467385
0.05941091217770683
-0.041730462432799466
0.08972313811862356
-0.08160031215045942
-0.03560852942445833
-0.0031767156666616505
-0.03526133173386211
0.06939461655415294
0.03978200862287871
0.007441624094054422
-0.08121775165405182
0.013447596425584105
0.014461300828143692
0.0680568890630993
-0.042969503868057084
-0.0962373168535464
-0.015862736310749925
0.026557026066718115
0.0880924469329068
0.011268225487564645
-0.013448748280629572
-0.09427717842019089
0.016172110645071753
-0.03592329299912709
-0.10215143758444092
-0.026400447846490767
-0.009756240875537028
0.00048894145138646
0.000628858836662574
-0.0031937509963791758
0.0005087605504610166
0.047932500053753574
-0.008716454678066166
0.0045614440721860215
0.06509629438398833
-0.024996315613455142
-0.04331397656209142
0.042830903407429094
-0.011728935024605654
-0.005885501194925069
0.13833724413801354
0.020402283430940495
-0.03794100590903163
0.018410564226322604
0.06053565884526174
-0.006053763086661437
0.04312207868291
0.03795931117468312
0.08097886749302764
-0.03609793645746417
-0.1643389943366702
0.07514649377536611
-0.058311905906446616
-0.030290183544814865
0.02670424374681367
-0.03411971509408383
-0.008212039813721423
-0.051631559544446017
0.05730049136362336
0.042530073004464965
0.03403397714499564
0.08529619544279271
0.08464479630297858
-0.00033341646291071346
-0.03456076995607101
0.05855672256353527
-0.02343244172095931
0.055820803978541625
0.0534526304163781
0.011164633036935143
4.326714027381786e-05
0.07287774078114773
0.3773375181032427
1.0317471690112214
0.462392648160199
0.15212971191977379
-0.058908336875358625
0.020123278034174977
0.01639080813797335
-0.026268132906261704
0.022663944808394895
0.04694662108708384
-0.009844771170461286
0.09674697533025249
0.0468550717157281
-0.007128454459263887
0.002627689229300725
-0.09440051518142752
0.14797431730902288
-0.024176392502786446
-0.03518177926578528
0.0011149010474174753
0.0034236472601319374
0.05149173368820567
0.03662445609977507
0.01283471052075087
-0.00494990826427316
0.09294778243435306
0.016331163971695335
0.0028394632094506742
-0.005381201768466046
0.03738213479005139
0.008280479472246893
-0.04618702292571994
-0.02069982715865951
0.041425187016601715
-0.0038853625583729155
0.03752123819425565
0.05398938859324009
-0.016536501468619205
-0.03193790902705803
-0.033954393470337074
0.08339568572365202
-0.06774629563742064
0.022275112304658517
-0.005854387376040214
-0.12029809424004852
-0.017935569981716828
-0.0007461634338412845
-0.053449681927195326
-0.0033143450340428135
0.036897998538200305
0.055262216903174455
-0.026070574870994602
-0.09860694035311934
0.13544310687798503
0.01604274445435958
0.006940367985151422
-0.023080763379152977
-0.08426787779234389
-0.025742880671884228
0.05842185268702308
-0.029870200172831225
0.050946219247844184
0.03539948006682713
-0.008734448283616235
0.07617731174424958
-0.024155108470044904
0.002203167332654196
0.026135470336228175
0.0703199779763842
0.01467155220795735
0.09326705596636616
0.06318077751455435
0.021920997039735737
0.0014431618637478635
-0.01367787536446303
0.03935492404464871
0.07181963794314887
-0.014042952712624021
-0.019865760351866928
-0.07774976226403542
0.049605073257548905
-0.014440767185613539
0.012222939005546522
0.02471610119112906
0.12961944508543863
-0.01806698630339573
-0.054018575891039866
0.09115849863684385
0.012904583509308926
0.010964141030021161
-0.011755521270408083
0.0166489231289764
0.039235579650834004
-0.007516531268675747
0.04879800435166554
-0.01602196305301423
0.0486566036827773
-0.06794052571617223
-0.012958247857602821
0.03753312914260465
-0.0853485947532763
0.043323232137935125
0.023486772873070563
-0.0970227553827478
0.0166435895999509
-0.06382325903864494
-0.014669168533332753
-0.01687138143890026
-0.022858738980082415
0.09426535673009862
-0.040706919218966624
-0.0003928003703567043
-0.058823837105351155
0.026680655160177404
0.0016253545417620433
0.02866896575064473
-0.0646539411788602
-0.02040625744912503
0.06923765563704262
-1.2456858240462258e-05
-0.018660894612331166
0.04232274924428424
-0.014395097833514732
-0.02279074563800818
0.0037181434867258212
-0.10366699934472275
0.026887218627749822
0.007438305544317653
0.020844612640478075
0.057808779720732534
0.00712332177410731
0.030702384997631185
0.018467236032196657
-0.05808797632033072
-0.0008747582238949614
-0.06908154715675527
-0.051402046728282025
0.02123160748767888
0.00027538849011529866
-0.08171820799195885
-0.05144785736958362
0.017672475405812783
-0.036425936225306564
-0.0794459455676193
-0.02185647913650762
0.06536438064389165
0.012290897945910428
0.07477334734710867
0.002924981553732139
-0.009181402269049945
0.03311065440010016
0.04389230272922041
0.1183323482973929
0.03928319801664948
0.04112613282616733
-0.010395461653092141
0.05561692585958447
0.5530225837101307
0.958706765169058
0.47457414721014424
0.054202449081059256
0.014083709219004762
0.04061804898359187
-0.06722835658447918
0.0045152364142287335
-0.0009297842549234758
-0.0726266974229066
0.05427684419474316
0.04131252677074584
-0.02873189505950007
0.016589761818882
0.06856323454722503
0.016727213122954703
0.02443860897492052
-0.012958432039734458
0.013730645943546374
-0.039564502076362106
-0.015951042525582427
-0.034216273245576655
0.05154854517084259
-0.044057914742089616
0.03564635314825096
0.070473126694199
-0.02327104833213263
0.0038678407888763813
-0.026038186727785607
0.004983451802256195
0.0793341151050869
0.010892724350738221
0.015443476474949702
-0.019657860723883647
-0.016704448504085843
-0.04786089463142915
0.0066504438819967
0.011031476715795074
0.10240733648287217
0.1031216904222761
0.02689294124417543
0.030691036014018947
-0.052211486607092995
0.011816085544786407
-0.10038190089577335
-0.05633343849960984
0.03851120446898925
-0.07915479491478294
-0.07268928774235349
0.03621927031789784
0.03579881463425716
0.016140034416578138
0.039933957193047126
0.02494100057582823
0.055060179204447605
-0.007528433638280561
0.04581046105035204
0.011369581756012546
-0.030497328399647583
-0.0417514962998585
0.059434849759246344
0.0015316464514444285
0.11339692293997167
0.021330552373330737
-0.06815906803289756
-0.05751425347207894
-0.039956523729908766
0.012753911519238102
0.01027868777953703
0.015101736312367895
-0.0008989405068398229
0.051382252758439564
0.013135363458095132
0.08883176104087215
-0.0053736007474958405
-0.06401508645737611
0.005315017872898502
-0.025475699564517375
0.0759894042183731
-0.016677107613761923
0.015300306295267373
-0.017957844259904623
-0.020230927636388125
-0.021157252817958497
0.09147902088067612
-0.0028904430132145656
-0.027937450280661347
0.042116011712999814
-0.026532945266104314
-0.009618907161047999
0.09672506200697006
0.04499222782165975
0.04255944348587482
0.020155540445563037
0.003406170059165769
-0.006508322377571069
0.03577646533859997
0.06899172240810923
-0.07060079225959286
-0.007922735249035808
0.00814194764720383
0.033503483100753184
0.026492716648134886
0.028707873826873488
0.061821971116066556
-0.13958124149342147
0.0749877824474407
-0.016746285296770455
0.02929451894359447
0.009704163228573693
-0.04670152430964745
0.009929615565803048
0.04738003602286905
-0.004701119644752231
-0.01302921080086094
0.09475524159722121
0.04114279432841651
0.005124310806244402
0.017288248980782125
0.021217096099295275
0.02463787598461703
-0.026687258271106663
0.05439659386074615
0.016558991142393075
0.10945447651650453
0.011253135101414284
0.08443212945934812
-0.02345343413510456
0.10968556748658227
-0.0285767937680459
-0.10591315979186258
-0.05051467185697611
-0.019458238738945935
-0.0071049968431270445
-0.008853835253585561
0.023540142624554717
0.012793208321066799
0.04507005991550924
-0.05774192101114309
0.002510365968436852
0.020128495442855124
-0.007543003747537191
0.10567406010477341
-0.03860379994681718
0.031524111572407
0.16736194794372652
-0.015108226780067152
0.00381049572697727
0.01249009496204549
-0.016350934101973254
-0.06608056320123379
-0.011160989062402593
0.03466052171486041
0.00228640752878386
-0.021670879775746294
0.05169308284147434
0.5528114146540404
1.0327575519604402
0.4150089331332223
-0.00012272775063912333
-0.039357347058691164
0.007359207845298342
-0.12163299369956004
0.002374616768410582
0.05355207825953458
-0.08112020170590618
0.09067277712968973
0.04287128789363341
0.017786274834101275
-0.023199460018252266
-0.024004753269648453
-0.022191086217652117
-0.08042685680708375
0.04437058970641841
-0.040428228653411835
-0.005120627421464555
0.06226148122708745
0.0694550835028811
-0.01008428910765687
0.020269394415786342
0.020904751455493198
0.10624258010672523
-0.008641022472638751
0.04885535865529494
0.0262956506438676
0.11188469146184954
0.01478494052331306
0.024110902650289825
0.06929954393175941
-0.020493174969663314
-0.005149511074281448
-0.0024344103849463956
-0.01918637838230938
-0.06749461263980337
-0.05275990713205361
0.058679362298997284
-0.0560096085971622
-0.023520379270697615
-0.05013663403478727
-0.07686252654435519
0.004228928411896013
0.0011477053947572756
-0.048264926889659596
0.000716806359639474
0.06793518240854134
-0.06019393799588988
0.041095355013002925
-0.006694791345609437
0.006311776356796701
-0.03631766568804173
-0.044287273690926075
-0.0029780405622222487
0.13647598864075383
-0.07330161419046329
0.08001783667243838
-0.06284639491908553
0.03526661508761685
0.020892310723891114
0.030255274530401523
-0.05288804258223667
0.059717330970401265
-0.06628975240880441
0.01603951373855478
-0.053048410312464406
0.016802547974183735
-0.010186415236432794
-0.031023642962702876
0.059186455583584444
-0.01312433697841496
0.011120635971655898
0.031485363431627826
0.07766983438670749
0.02614507153880426
-0.11728086412094925
0.02273063189706931
0.0679275650088428
-0.02094029510034347
-0.024424357191591056
-0.15900065986793338
-0.025659879047396007
0.02131370268875689
-0.0036754552032728692
0.025275032978731515
-0.012330309777525625
-0.018836628966308444
-0.07044148386360845
-0.03689976846065951
0.012762771271796265
-0.017195342303227168
-0.05332545569472979
0.02771478899570917
0.013119622946135862
-0.024456185967011986
-0.06504932096464566
-0.043919723399457766
0.032699976948971185
-0.0012120322410884177
-0.0853231577786771
0.10425634120907293
-0.010899478205355336
0.05258976151629732
0.05165549246308918
0.07720142335922896
0.05184767581665487
-0.10303643352156809
0.010547063643639764
0.09699956275536656
0.0020155459393962467
-0.0068963977967713
-0.040505494773502515
0.07615545924113122
-0.0082306261462351
0.024866426140700806
0.03454755926607414
0.004266254324586326
0.015728409877935747
0.00339782681535198
-0.02543467845282641
0.046637201079901276
0.031040941749449394
-9.93980014401962e-06
0.09441738591765518
-0.011428272197779569
0.04622680435690814
-0.08699663576120245
0.08470688158610659
-0.05083096814007124
0.041233392676475696
-0.0294509572213061
0.04466584909639557
-0.00514687056416705
0.04473618283757745
0.029771226694104754
0.003765767698891652
-0.01733625948154256
0.018620649940639427
-0.07552935244394131
0.0015024308294802318
-0.05912377278537108
0.09622478539883904
-0.03723136985257059
-0.06784879629918915
0.019470027311466437
0.03235761795651403
-0.0008947892969206595
-0.0029382077028601876
0.04816191612129081
0.013058380555942828
-0.03814345981318244
0.04178911981074384
0.5052292747859504
1.0302651687282092
0.4081737215082002
0.08347447854934138
-0.016792808366451417
0.05285632017677358
0.024992864962498466
0.0534917365298667
0.009698314817578572
-0.00817405315092913
-0.09864186794693883
0.13518979991209099
0.04698074718824678
-0.02882978433192327
-0.013905847671588338
0.012118771900535931
0.01740405475645761
-0.07328572176520053
0.10628747544019689
-0.010919385371097573
0.16366274159022404
0.02783294962437105
-0.043944066510537665
0.03304965846548827
0.02680335688641058
0.031242115881159632
0.01281262664629852
-0.03629419550230361
0.07610802564694429
0.06526622780693131
0.06900947750099821
-0.04810533989766683
-0.01734780740155039
-0.014081562289752768
0.004840879821988255
0.039058801223814665
0.06303044079546263
0.010999394805449574
0.03398589458722203
-0.12711756071178548
0.0007451281512494299
0.06713098772362046
-0.07694308691308313
0.029671651384171927
0.016531493198709248
-0.045825073817683866
0.0773061867475246
0.03826937275012646
-0.030252780764983056
-0.0652376874826898
-0.030943882499616906
0.05384871427001876
0.06827097754457634
0.08047642989496873
0.06708900783757792
0.012647207099085315
-0.04196434518269851
-0.05221709793999851
-0.034139295562574085
0.029317716570943855
-0.01750674812597634
0.07346139440031345
0.05720700119836494
-0.03651449023241662
-0.0006626893244633638
-0.003277231843997159
0.06826870948238306
-0.04841776661855958
-0.02422668171264862
0.019622858748852973
-0.016401045275284114
0.11526850198337679
0.033618126912666246
0.05260837211737251
-0.04205504083235767
0.02168929505977665
0.06847165949588944
0.026022041271707493
-0.02178989270363584
-0.013425236910456988
-0.11849579218831859
-0.011637455488734438
0.04136882995779456
0.03765878182566995
0.003211323009486499
0.012859315628863452
0.03249231311803325
-0.09703751906187055
-0.037089575978166
-0.060852650389712264
0.06354169510174791
0.036681706665217355
-0.06239309505109415
0.03465395046375653
0.008857396850836884
-0.0029025655738416415
0.024504257523881603
-0.005220749428972729
0.013916021344075019
0.02092325400551824
0.09351256637736771
-0.04203225420380933
0.050614136036814854
0.06024509360054864
-0.013255273827127649
-0.04464994932478006
-0.09044194893896029
0.0448676697136558
-0.040076897888465725
0.01799834422798618
0.025513529666113824
0.04066587265146429
0.11785426365193451
0.0216836641513929
0.08269809826473205
0.015603529065514056
0.01183772098365389
0.004650186071008249
0.031039841664466373
0.05783469769828201
-0.06424071256857404
-0.0658285766698825
-0.0075296062152471616
-0.009462119763762284
-0.04423347274119494
0.035041706164648245
0.0418019825537686
-0.015381040317826312
0.00739554192548059
0.0021728484690951805
-0.05903691171774549
-0.013573037549923443
0.00867094349452671
0.011275282534652396
0.002645583415344172
0.03836323498051256
-0.004590286408718183
-0.05764141738140295
0.05365101305324374
-0.05709965466521423
-0.04522027192597834
-0.02472914807247871
0.0025163833609841823
-0.01143965927905118
-0.02373419393932277
0.04373849646631406
-0.09055630372396578
-0.026009326272675826
0.04716137306626442
0.007529813587838896
0.040652496266154
0.05220737142305966
-0.04520583743475188
0.07515908370599042
-0.01369613519333114
-0.1364081222962738
-0.028918733003820862
-0.04811660586825576
0.028227568234565112
0.1465791420452684
0.5659541619667802
0.9552636797491094
0.45015283349024443
0.09639114535205662
-0.05899294810414102
-0.05809041713423892
-0.01843582233665446
-0.016806505739554962
0.05193839503142466
0.03388721157742633
-0.048071072726380726
0.007127174740148747
-0.003361765897876752
0.1047720880038217
-0.08484128143721192
-0.0007920473123301591
0.016869512294300743
-0.011012017769948894
0.033569319363866826
0.012897903612314432
-0.0008570786786861082
-0.12365197018444662
0.026314205467398866
-0.03403913109307053
0.032496185868486176
-0.01165456464532627
0.015528933153183292
-0.044770194127759
-0.04409926993453234
-0.00899536139032906
-0.07828305427857983
0.01947502659211578
0.007245980754623666
-0.005338017148168941
0.014842139813568307
0.016475969846880642
0.023626139437856703
-0.06672234440123097
0.03561866253272305
0.04148667453447791
0.0016594042455901248
-0.04421373663467093
-0.04777144393049168
-0.026533846913720016
0.0656658244260117
-0.03349857954409963
0.005473173980438791
-0.02420203249461651
0.06936053660479881
-0.09528309627637137
0.06158783842078297
0.014188651456140325
-0.026044074213185827
-0.00889884940633382
0.06861861857656319
-0.054239870683782165
0.012029605968223696
0.011054697177514948
0.14099175489771532
-0.015773935732419378
0.09194469965108393
-0.010336975915850822
0.03863022278024101
-0.036419459569068995
0.11669053607336717
0.0018132884530590984
0.048436822758109434
-0.05747836024034694
-0.018277740941814637
-0.002986123924005403
0.05608783504108111
0.03494629609169955
0.06207849989789432
-0.030768886224950533
-0.03014974548830105
-0.029442929088879796
-0.021964422078809286
0.04964095875158385
0.040025390609494685
-0.06517690430103965
-0.09673467518550913
-0.014684170333101147
-0.014517192629685184
-0.01840923661197277
0.06603467697636674
0.04377092892419374
0.05665191111066168
-0.13645293165913816
0.018825401127789954
-0.07432029666040942
-0.058208750726890836
0.11603782103624315
-0.0038268368895689273
0.00915562932713917
-0.030813577565412444
0.030244068422329504
-0.07717471078004563
0.029757146791607056
0.03160129626322874
-0.014272068187725348
-0.0014319006373890563
-0.013823507706081806
-0.03224833353507975
-0.07976185248267575
0.014659212369461909
0.011245962345845968
0.007382797888408162
-0.05741063362625353
0.03912600643946824
0.06735829588928587
-0.03575472122706853
-5.462549638288496e-05
-0.02872390076875067
0.050160018192884306
-0.012491443367186534
-0.04133809057571937
-0.008397705918718091
0.0012436162680701589
0.17007387842933633
0.05718663975313818
0.021726463950178798
0.037636294704311964
-0.0036392825927251365
0.0056789081865434585
0.02882203957632655
0.07244040706381574
-0.053283733244784116
0.047208543900979845
-0.01764260970360091
-0.03591690775419412
0.04146744018714063
0.07314612759008958
-0.03028942581070882
-0.02412090585301785
0.06076628026821926
0.07082089788707223
0.08476223852181275
-0.08092679552957403
0.05313790114713845
0.03414220852629563
0.0827955230622134
0.026235213116778972
0.008419927991715035
-0.15076157019924202
0.04452029218235252
0.09628636501840111
-0.028485723943317654
0.0283760076151798
-0.050487898592974916
-0.02964855715619858
0.09800590602465181
-0.1398135351608223
-0.02808279946552114
-0.12305391514006787
-0.0038924587088220463
0.012698502127713597
-0.07410286136763138
0.036191260074871764
0.5440079299246507
1.0039113920160891
0.5224444764136518
0.09339098157594608
-0.00537945836426282
-0.027227469663440737
0.043512784213576926
0.0005090561029024573
0.029240359491640423
0.09407122578195555
0.023704670852930695
-0.04040642894985496
-0.05252922866832904
-0.05406184091260113
0.06096802744359672
-0.028809031488948457
0.025577298777260712
-0.05254488184952338
-0.03668765787704674
-0.05707935348806758
-0.05572415510788914
0.025318792887035757
-0.03241640501070039
-0.02387505942797184
-0.0023201014711850816
0.08236588371900283
-0.0010092375933188934
0.11870585118387121
0.03820326903427654
0.0317191389361146
0.02525553271276795
0.05118765072868399
0.0922592497836192
-0.019520455416239056
-0.011049092683898667
0.08329480817368316
-0.025244271914376615
0.006076243222555846
0.007528124129080069
-0.001048102024676228
-0.052089411498553034
-0.048107354088191785
-0.006767694508058742
0.009046766624448085
-0.022671365380327074
-0.020009530906603266
0.05331948935636214
0.0974872176792283
-0.016068577741345784
0.021927358558414642
0.09131490054822211
-0.09211945348944194
0.060273790972537745
-0.033161427829243806
0.047990456349962636
0.0825732030259656
0.05522882146103202
-0.055087977868780835
-0.015444843778897639
0.010676804139786097
-0.013487500961739458
0.07429809319546303
0.07424028605143115
0.06829019216761666
-0.07729232163227577
0.03185036251547397
-0.12590673505841457
0.06451583368181411
0.031109920483847076
0.029225331053487236
0.08014080577984725
0.018140753071633604
0.10102978746489824
0.043958858758332775
0.052148896916895594
0.06828478622582221
0.025958831167360093
-0.026474775813759593
0.01650045322759047
-0.08838142216616424
0.026178442451389585
0.05871467361137964
0.04490634147012278
0.05939080690817011
-0.030479345300986768
-0.0004916686858192487
0.050636709320653076
0.00820413138628529
0.023410597965083622
-0.03023318489896436
-0.08114965506513533
-0.05223776059468489
-0.05634344651585796
-0.007412510110082784
0.014824668772294014
-0.029530331538449795
-0.013176484922043444
-0.03196695505876818
-0.06817007489990447
-0.09310754492185164
-0.07083787572218904
0.008109178764114882
-0.02651620866325626
-0.056558688442846554
-0.0518331191992666
-0.01645183555293264
0.0032464344756724297
0.005062283958870349
-0.019115833349789196
-0.06651999727518812
0.002862115796711275
0.08321981198714441
-0.12135808811472866
0.09048367764445495
-0.03501356290407129
-0.04405194957614654
-0.017353319551919818
-0.005787779572815589
-0.027236984485698286
-0.04862914841296918
-0.033778196487757844
-0.0010170266841770473
0.02808338073218817
-0.018017193535986804
-0.009986703759983371
0.06377526896249784
-0.08934446910732236
-0.10322763616096858
0.027024696666311927
-0.0028099812495950105
-0.05173712025509212
-0.04341753790492722
0.02273582181462938
-0.006652788166890146
-0.01480168096953129
0.07064380676773929
-0.040091815673527535
0.07962200148265842
0.048274927161138646
-0.0031039380955725066
0.0463814294415192
0.05102019717831016
0.0030456908267951334
-0.03913089699835643
0.028518129299972095
-0.05604196617745946
-0.04633634255018847
-0.02611450270201863
0.003204706729927908
0.026204668307382186
0.018293297838121864
0.10412278441341137
0.19076555670682221
0.43919772620709685
0.9622229799472778
0.5778699762457025
0.09983268151260216
0.025026436930309166
0.0075368407515257856
0.07538848157241772
0.013180639130207839
0.021646657788680024
0.037473961020910614
-0.07763538177878812
0.03037091207633565
-0.006578691874737881
-0.030834408117082452
0.010770735671694712
-0.046396888098526934
-0.03689410620338829
-0.043652077728920644
0.06664695062350204
0.0005198096057647442
-0.05907549419891145
-0.021670199876214886
-0.13002809694335868
0.030050080996488635
-0.03802299779787616
-0.06149992797096046
0.013512081192588218
-0.02868068582077099
-0.007705166919172138
0.02427515238714357
0.0036517701588698703
-0.04442146994592153
-0.031539885584724724
0.05506489760582718
-0.03491904891373576
-0.07217912271617506
0.019737276369672357
-0.02472697140257939
0.08981292204613517
0.05296606993044339
0.13391515808340992
-0.07086027811774542
-0.05367226013259877
0.007062295779938299
-0.04219680495192785
-0.03841331297329204
0.00022393652820578582
0.0012375024422296055
-0.053716618289606326
0.009770484774562658
-0.001881490801339008
0.0030554521965047246
0.03400396319227898
0.01241422043989747
0.049019115144425564
0.041742409299186746
-0.07116509860864326
-0.05484505972568902
-0.0023635024007821626
0.02351928611254423
-0.06493334845132138
-0.02667487599150328
-0.05249682440814925
0.036092445427833866
0.010162096355309194
0.03723041528787373
-0.011893476916374103
0.011499758219135884
-0.00451788223600797
0.021298592782677317
0.1005887480312145
-0.10653396824979942
0.030915969803460244
0.11020768805986099
-0.10690347067554946
0.0038420332016815086
-0.014647578898175416
0.054510953089820305
-0.07568554948173259
-0.013051715056517095
0.010104333709707144
-0.030087144951006506
0.0668708686813531
-0.077393268878731
-0.05409462704088587
0.03752695460477256
-0.0903643283282061
0.07980142771103332
-0.056472585134660996
0.03126243293195501
0.03502242654204276
-0.02932739867116393
0.07103130741940288
-0.011590329149639473
-0.05408778560577655
-0.05444136900708461
-0.017851687898743612
0.0007420225180652404
-0.015339309189436118
-0.023832018499717444
-0.044542917237785105
0.09066949661409135
-0.013688276877602549
-0.04237935662685103
-0.0004721998067958127
0.007309067095594123
-0.017374221953078205
0.02478813365703506
0.07451471947402018
0.03642344307439723
-0.03529743320605604
0.03592074020562604
-0.10925956158956028
0.08218729775377386
0.012696605103680706
0.05569855676946861
0.017990391849438184
-0.013395581788507077
0.026925375199008613
-0.05987266733618072
0.012565037861582291
0.005550247742629591
-0.006816238328389509
0.03600418863160303
0.05212591433811279
0.006046511028316629
0.013229072026803682
-0.012171739701734666
0.03891496345399869
-0.029500328762272727
0.04280469723842975
-0.048716212047422526
0.0545504249697073
0.04915680367834113
0.030729707601681727
-0.026459847749985468
0.011405454785572424
0.04051255310984748
-0.018276465814036854
0.05226332767815901
0.035434601485226626
0.012090452536854366
0.00034246206941401786
-0.029045506926407196
-0.04214156592010266
0.07747502024693534
0.05940349791668709
0.04978606339691541
-0.038021702263955674
-0.10837842117112556
0.048666267044207456
-0.0770811247704365
0.042702804921099013
0.05987029149242221
-0.06077405872097881
-0.030959344007686036
0.08139894574860075
0.4173025137493136
0.9691446912102951
0.518795199797349
0.12197608265882619
-0.013691541237067902
-0.02307586952534594
0.005527575622401622
0.007815033447743888
0.028221257874756985
-0.10006476076763866
-0.022022297347101073
-0.05047402124883196
-0.03545050831430703
-0.042909962451067186
0.08834197240720454
0.04070013328241451
-0.08580984191912522
-0.018415680257243588
-0.05942648741785808
0.06011570077670645
0.06495271134625834
-0.0811968211971772
0.052075865353645445
0.08451266463999098
0.09701567889093074
0.010209984797418846
-0.001202384461295184
0.01893522925188936
-0.015298930068310367
-0.012310844593732592
0.05711688288670258
0.010266154009892468
-0.04514142791685745
0.06303625275977769
-0.009442011864174139
-0.04341438482853669
-0.004477305996304918
-0.021830467453954366
0.005600182178158095
-0.022996138452254983
-0.027023129928028314
-0.08371369677777271
-0.04265523766082283
-0.012492309045123884
-0.018061249964704013
0.06360821443630565
-0.010258744084137662
-0.00371232008963413
0.059058292623850456
0.046773850156890624
0.030521512304892362
-0.014706918428760535
0.025603709926441055
0.06411258372034986
-0.006299026616296947
0.07200606174534907
0.025157112226983764
0.020525231055316527
0.04245809501585538
0.018416727096537102
0.027953625461511034
-0.034651191001596596
0.055852706411219505
0.019014338425024865
-0.030815901568552795
-0.016007666677972526
-0.006725623554124658
0.05039223555865977
0.0737018614965971
0.053506590816072175
-0.030770842566833018
-0.038367621530204676
0.027381407256623032
-0.005256095927543881
-0.09005853582438945
0.01551971312520589
0.0007949681017146541
-0.04876534219218664
-0.004062687903775423
-0.021647588118497655
0.0017864188934540665
-0.09345522989887563
0.01450421399340631
-0.06782099523860319
-0.04176698769985759
0.029365229146350175
0.015193856374107792
0.011841961075355942
0.03325606964137536
-0.04927985365135352
-0.010614340872335416
-0.01616744046223638
0.06686738828853765
-0.0027701959176641856
-0.05985327221851416
-0.04485401968223232
0.042078211050815995
0.009541862766605057
0.0024893794751682428
0.11765974103528848
-0.017463452572678433
-0.008673461881588672
0.09113424309445184
-0.016524657967665855
0.031042585792444018
-0.011313539410376907
0.10474014477983325
-0.02637703061694685
0.021712589705963063
0.0031376612575415167
-0.08739406921427413
-0.14407873198668383
0.016581770933899277
0.057865214414641944
-0.043606901655929044
-0.035653073110858066
0.08156460504313691
0.012562153523358497
0.06364519632399683
0.0654679239748979
0.015103023493940493
-0.007912345669998277
0.059319464895858744
-0.034054092442561204
0.06510258081416402
0.16623425714018641
0.010305473776062002
-0.1053827336935389
-0.05769551114643404
0.042438406459574855
0.07863196099832381
0.08127623406085639
-0.012431740347177053
-0.03549289509916655
-0.0024030363835425717
-0.011520664346822102
-0.048489900221736965
-0.06441520058060424
0.10643154919677339
-0.05065774558443736
0.0066835408753187844
0.09508349060305281
0.07474153668012651
0.015421541143022521
0.001289626903079769
-0.10797060124794398
-0.15609081964746643
-0.07595983396311873
-0.028161022885672696
0.06524276803478476
-0.004683823596136843
0.01593424341358416
0.05088111426946584
0.012318778083064818
-0.04365931802758467
0.032263011045578736
0.02114244204051985
-0.06337366599168441
0.04871313042749423
0.4220195117655123
1.0720261669357862
0.41752012839223124
0.0570523419772632
0.03508011419953589
-0.02759564082614341
-0.004102032694140756
-0.019148147147091895
0.026942068177777435
-0.014598473275790742
-0.01172646960011027
-0.07873106502894493
-0.0009653666470696963
-0.006671513684186671
-0.017095255728591392
-0.07307313112536327
0.01859181121838994
0.05826337092615378
-0.014199271476625159
0.038110299461754676
0.005179346675526627
-0.01771806539135706
-0.018554461285160657
0.001759524430422449
0.0030941897039808847
-0.07615718903140356
-0.12300330246062
-0.016484246325309534
-0.018872567329099407
-0.008365673175983952
-0.0093591515697529
-0.09353265670606795
-0.05750693440151286
-0.05963560600145721
0.05019519953225398
0.03946712625923939
0.036602072434747134
0.046775152950969415
-0.023953826245810408
-0.0409993792105372
-0.0017466283867722512
-0.03599165074592029
0.07651139622748743
-0.010061172826505607
-0.024548823936063526
0.050965193967352954
0.03869321005656244
-0.020267266049582705
0.07105560903597043
-0.030461591667303913
0.029819437215909364
-0.08465110389360272
-0.004978580062978491
0.0654742788303109
-0.021822265146663425
0.0893492752970812
-0.04515528921630224
0.014662670800917266
-0.06954844592083807
-0.0040187525868678655
-0.018726987161205726
0.007047874782671325
0.02052143850298763
0.0638509613936785
0.07644468589082971
0.027643429786558534
-0.04081067920915938
0.00742473206785049
-0.08968554453455285
-0.06953477838671808
-0.016139186711999955
-0.00319478136047303
0.013788854388593095
-0.07004394711471008
0.011532343379811835
0.01676805388337687
0.06795091831465193
0.04639594773761286
-0.04357633566473337
-0.01598424518433005
0.014397281267684546
0.0023188735818087404
0.04724287801550669
0.04060808026904161
-0.029806874020056547
0.0011330735348938216
-0.11683813750766264
0.0033671346213122975
0.005520594588866963
0.06252927839264281
-0.08633967029901324
0.022287271580017597
-0.0013065904926010577
0.0001392471513509468
0.01987551604729718
0.03280291420531979
-0.08408695297162477
-0.02295827845576611
0.04924111830331527
-0.04580565723738837
0.12635661605220247
-0.03685773394877744
-0.032637533727023514
-0.030940730819492834
-0.0809423097960351
-0.03803473673353845
0.018264507989385264
0.03139752743317336
-0.037375043038683955
-0.05635624672948726
0.008883680936180794
-0.007652360707768745
0.013787605258635436
0.016119987782888232
0.06100478828381241
-0.06306082005371832
0.033240863489358674
-0.029199656893573397
-0.03823840100144102
-0.013644408779941296
-0.06149966938827536
0.01941698326803988
-0.009148689092735298
0.013532941341760302
0.06018990651294251
0.051032987077896275
-0.04656908660046512
-0.05639798058287996
0.023000090134000603
-0.049424233342376195
-0.07651090746951333
0.008020372222036647
-0.060580321989993816
-0.0012264564343665676
-0.055144124147999435
-0.012788749699667602
0.03677584794824825
-0.015805734234262774
0.019258066146300698
-0.040719354589382195
0.03418735554179555
0.0002670242149328657
0.00702243683610441
-0.011993843508537492
0.023557736671661805
-0.031901783901597834
0.08815302479295231
0.0051656245791220565
-0.04720654940572061
-0.08096868267631141
0.053204543975545464
0.02165946447809691
-0.0930173013926835
0.021004977618917085
-0.0808598085198887
0.03974667553594556
-0.06407997732525327
-0.09556932252658819
-0.102589870792635
0.10368863727915359
0.397672558047103
1.0902472880179461
0.537642886130909
0.15345210900710501
0.045194409979001426
-0.06458088773836657
0.06087299607278501
-0.048482916943090495
-0.04910592474122573
-0.054295180539588095
-0.04970624511196356
-0.03321366174594477
-0.02843139874849279
0.04964943366382855
-0.017985573663529677
0.0046294323595294186
-0.0462633538305951
0.03450205060361183
-0.09253756446262537
-0.029664087766230435
-0.058944336179721925
0.047927490134008384
-0.007539873699824552
0.023389415257041947
-0.08564863266685652
-0.02195706342276879
-0.03257363731054288
0.035693589894584946
-0.038966306573565826
-0.0020367993503251553
0.01865568240843446
-0.052427231581791835
0.07767135606732534
0.04305483587723685
-0.04079068673889513
0.028724128388964987
0.0953640758453644
-0.014560643351028116
0.03803968378836344
-0.026422760038778012
-0.0537989088152546
-0.06642401964995867
0.043181255632945385
-0.03942713179649501
0.02772203704933314
0.005327525261397501
-0.04661959045781136
-0.054411502015614434
-0.01963447212406383
-0.002215704590713122
-0.07547201752785881
-0.054400539300735365
-0.03495431012853224
-0.037687093436372304
0.13306957348476162
-0.0343679064794005
0.05464030412688112
0.007969286035825118
-0.054957933766303105
-0.12429910152667097
-0.07691698280607233
0.04964204695349697
-0.004499310855739265
0.06269856544464653
-0.07521264613338817
-0.003566101697453538
0.032823191413671786
-0.07878797502503197
0.05275353722905094
-0.009331359247002421
-0.013381950056410333
0.04292760971178165
0.1130283676453941
0.1057414253892972
0.0234488946025594
-0.04697239478671508
-0.003916804056851019
0.05625991514625759
-0.017954687113774716
0.09219179775654612
0.015961394202750296
-0.04769241007200983
-0.05531444846520525
0.06840417282255024
-0.05894634625992066
0.022164065786700285
0.09983773638995008
-0.036234230314750225
0.012607773372806231
0.023549288276744663
-0.053328186997375675
0.025360916568710087
0.03922046678493695
0.15442201215947118
0.021759269392411885
-0.04668112726095691
-0.055384751268275835
-0.0232236740071861
0.06182105510704984
-0.0758315394080035
0.014213285442872928
-0.07683051979882656
-0.01759131670408487
-0.03683575230123038
-0.013010424148879965
-0.03450688048904915
0.06027907520659303
0.027960694170982504
0.021689722521193014
0.02256944429419211
-0.05773400972569877
0.042631617491928515
-0.06220607747809129
-0.051543415992151786
0.0026767941821788607
0.057358110334429016
0.03793286885649666
0.021173212597419448
-0.01484026444435998
-0.034289230806038705
-0.044372380876733064
0.07672424869826439
0.04611898178186912
-0.09339359674340464
-0.04226744171337759
-0.008185376450266228
-0.037423653807041345
0.05013156869674569
0.01405002694404203
0.043962578262000354
0.042150803337939205
-0.014368852310475811
0.0639677496806558
-0.045098231996489525
0.0024024127313194525
0.0007763480680619867
-0.004668953945811447
0.03381328858705385
0.029266551194038943
-0.03259260581723448
0.07632389489242436
0.0007203732712741471
-0.0024317177086122894
0.06411365416359793
-0.036784317806149165
0.025304926724179885
-0.031151107047527295
-0.0553945624029073
-0.064178592104391
0.026311563403222684
0.05485410948690222
0.04017434938072005
0.016453563516343625
-0.007890817150569123
0.07285907657736755
0.45269273863589043
1.0184343994863285
0.5788853763259887
0.06037815987116424
-0.031148946335797296
-0.04258949852382098
-0.11592559960612779
0.024967890606574474
0.012276127612189863
0.06053456055758395
0.03241694521597943
0.03272163985932505
-0.05952420599402374
-0.03622363584259786
0.09445821201357318
0.024021487340387143
0.015013348853754516
0.06371341133066995
0.05187887959879224
0.046532164779012966
-0.0247954584593291
-0.011892966779226315
-0.0021615986165243566
-0.056204189356978455
-0.02751293641870109
0.013006353983876505
0.04321366067123489
0.022509665311349583
0.04929485972006164
0.07270841536539445
0.0987023854888564
0.039367739648580764
-0.11167857727138396
0.018619292596046316
0.02484280159731682
0.0029623225843741093
-0.08363034162214944
-0.02381531810623215
-0.02336349211228163
-0.011321000492105847
0.009386923371744215
0.06337106406236497
0.11566195367869969
-0.006226795000293927
-0.038027158621976406
-0.014795843153053066
0.00031966058713562596
0.004745331016124121
0.0560843285038822
-0.004109013314177081
0.0073276768507017365
-0.08636974810051934
0.051149581937410274
-0.016257340891318743
-0.017302375091296764
0.021136864889206672
-0.0514111852701634
-0.09410334573005584
0.02336411847479049
-0.03779739992988724
-0.022030887947896847
0.03493141761826289
0.0055921661109711715
0.012371315235349168
0.00275184646519419
0.0031404068790599456
0.07665421420654862
-0.062043084107356775
-0.06380214379560877
0.10520578310132665
-0.05468349099533535
0.01542704224852294
-0.046309725039142074
-0.07518176143702474
-0.006163881418091004
0.11506704717381461
-0.023251889795753974
-0.049458083157802535
-0.015256379913057855
0.07802632619406985
-0.023064982458011956
0.04343256247184419
-0.07381216598796449
0.0017328360928655418
-0.03051185101520238
-0.08284099131715497
0.023192667936132325
0.02842491448969688
0.023545679827163823
-0.08262458312512912
0.01548704772623377
-0.03259734843003289
0.015905313339435206
0.017711077354306933
-0.019816130651573435
-0.038489670521344665
0.04336956859842898
0.025386464777236196
0.000942592280075994
0.07404579709158324
-0.012019400453736749
0.011075933387017043
0.011682082537412916
-0.0216795268677057
-0.020879613718086346
0.050359304329966804
0.035981550995657655
0.0073279529132948195
0.01751922669839885
-0.05814018028235366
0.03800099708142769
-0.07165690865286771
-0.04390937590777741
-0.13893760725444043
-0.024384117508028602
0.021225973463563245
-0.051587903664641145
0.05615486391571474
0.06018826501511574
-0.037011739916052284
0.05535009374040807
0.02074650187176201
-0.037432387724061524
0.021571601464939794
0.03624420254015536
0.018684240625169928
-0.02235246350937778
0.042735631139910565
-0.004677676759528674
0.028265573218593184
-0.0018732852833118917
-0.09424095691252285
0.0267096077637911
-0.04185731067677641
0.04124145067041382
0.007507189528138178
0.003228886830184678
-0.00825594176061306
0.0033030112386512388
-0.047360790294895205
0.05685820293270164
0.04438580610520518
-0.05249260049569352
-0.00019350232148402779
0.028896755540889715
-0.03375534313639324
0.058726499188260374
0.04217815596421293
-0.07240679126253911
-0.025413301648640876
0.007015723129788737
0.03757310805005083
0.10912428805222812
0.0355605820570036
0.048638580388982035
-0.0630249699916432
0.061993429876783766
0.4320978769308994
1.0395218503484847
0.48848310423397884
0.02553888019618479
0.007603301914578881
-0.02815487838727503
-0.032679361472280975
-0.03300418174875662
0.016046442467346125
0.07431559622422718
0.020457905841816063
-0.08636671328110013
-0.004087121678075618
-0.016902015478968607
0.050036025879602465
-0.0031862667790035176
-0.020318297475126663
-0.03681952413781807
0.016280773967666525
0.06670685358312389
0.0035799239655461123
0.053246184703015766
-0.054381959973407584
-0.08119982938357584
0.037555524875675414
-0.0811877888385994
-0.0597479804441629
0.03971139983526267
-0.008412792936686538
-0.003855368714084083
-0.01426401073944466
0.12036444358859935
0.06743467664528739
0.004680775648229465
0.003166715200017562
0.06638377216798398
-0.05044872842261401
-0.06122773991030315
0.02642357482120026
-0.055026766638661184
0.043286078311538294
-0.011444477439135771
-0.031459458084307425
0.03187321207358718
-0.050331632270635196
0.0026465023439080568
-0.01190083482682462
-0.07085624133129108
0.009424224414518605
-0.06726174296890108
-0.035838895222806096
-0.057403337294223755
-0.0012185737660964124
-0.029539471824889925
-0.06713948265006199
0.08798888200683426
-0.07960358458037073
-0.02767459692442158
-0.05560874919043133
0.014328883417423877
-0.022987941202384465
0.05034814120607578
-0.0006824092816841511
-0.03484500028794893
0.007273339587768992
-0.028354854088496785
0.04487564432543809
0.05303213255472575
0.04994549868936046
0.023410163579521703
-0.07983795795481269
0.055860220520919504
-0.03368704832140975
0.07234734391561859
0.03763250334705348
0.04439280191529158
-0.0406850133766802
-0.03348409534170291
-0.0047169986765399794
-0.03422189603147712
0.008139809454026325
-0.09824981675862386
0.0020245293002050554
0.04297301258416054
-0.008058013218538131
-0.07355963670540036
0.017346494027951298
0.03401570374255644
-0.017110210923439194
0.040755852722222846
0.007411777556250378
0.01611026270241116
0.047961064104490816
-0.0988034182729194
-0.03669692233859261
-0.0705033164133134
0.028914695728717854
0.06921153449386003
0.04790294084606544
0.028634684208944685
0.0012660774294153973
-0.08865951478504042
0.07785818139917876
-0.011951731811014308
0.04527667988138648
0.003057158032415589
0.006985445379156985
0.05736804149271092
0.04614277103817241
0.007204111054130305
0.13630757627367082
-0.045856963269992196
-0.044412659808355064
0.006796883359249619
-0.006508070061358887
0.13646391349933892
0.012529126092874057
-0.01428937527181439
0.05435460341759153
-0.12390847570799242
-0.0590920432058194
-0.1071391182514519
-0.04139080606404357
0.08144731252611119
0.04663542335682825
0.07789693337045402
-0.06185102146178581
0.07938417279348432
0.059642482686062474
-0.04084748881539174
0.0017328979266066373
0.020766393212227292
-0.04582838199464666
-0.019734707002463728
-0.06114332824178148
0.042527180037213536
-0.03961994255663817
-0.004768670729717253
0.1137835342586165
-0.04273608100336621
-0.0029985695781545446
0.012637069813293418
-0.020239414863731847
0.04692390532331943
0.03795172426619761
0.008454641396952045
0.0168984980823582
-0.03536955730451411
-0.0028446532754893526
0.13211588344648958
-0.0623517654525282
-0.002779946663529191
0.026220573870536293
-0.02322438911029951
-0.03796232348946026
0.12493918479655572
0.5463082826232815
1.0323420979250308
0.5364735006135448
0.07526637124899706
-0.03940031971935906
0.02080942354245766
0.03249393751721968
0.04190769880539406
-0.025883218459652337
-0.04955046141641347
0.07291978993463956
-0.01446790422396856
0.04424714919558348
0.02878197193056428
-0.09506628480932623
0.009444433647470586
0.005780346028528405
0.009115202988891008
-0.1060985908906626
0.05452848629399522
0.0412122051210842
0.012179860394826558
0.047940446308635656
0.0050457486616129685
-0.0671334279352163
-0.014224443180262026
-0.0220486247846744
0.01589830705345936
-0.024406299636641073
0.011922727251463828
-0.019217872554077607
0.07964772940284746
-0.11388107939929092
0.06775433347077973
-0.03497450706892105
0.01630495062556477
0.003692627361082873
-0.0017976082868037095
-0.06883760036058618
0.004432618034431805
-0.03666135001341294
-0.05012419040517371
-0.013609411110899151
-0.0348976632450159
0.03344307033343106
-0.0006256158022564127
0.05726597635107836
0.030368512665123273
0.06327548904948538
-0.027133589721505636
-0.006776941068044159
0.07572265656743193
0.03909696107955446
-0.04755773782630517
0.00459607304884366
-0.05629764476581933
0.008062166148792486
-0.004271950448116406
0.1051989090449639
0.008749140193556233
0.04764017104602192
-0.08092876954299835
0.031649817096482784
0.03022688201565717
-0.009356153265983914
0.05129877533437103
0.011191200809686858
0.05122735170659909
-0.06443694599005327
-0.03164818164386032
-0.09507856907456037
-0.04207535269068824
0.05664318909525055
-0.03220815436525972
-0.07968624018127142
0.03305063586652239
-0.018641492245277485
-0.010360065046695887
0.019303449720979155
0.0439599150050849
-0.03286069576430283
-0.08370051874378742
0.1032569094317813
0.03959862298210007
-0.08406760543810099
-0.068982930202708
0.0038301759307336446
-0.06215457006324261
0.00399712625110682
-0.08843209620559112
-0.038301814519214106
0.09196476309296872
-0.033522170190166435
-0.07036241617300208
-0.016453412286697333
0.03870248379232163
0.04389330205003151
0.0064190582580510875
0.04361898648564974
-0.07088312455421616
-0.010482095611850532
-0.02897961538574328
-0.06967839825625205
0.03028988763602954
-0.06704104624404422
-0.03758346416172417
0.05292592325625885
0.02492744348415658
-0.009286196367413147
0.00857662193860661
0.015259923777967914
-0.058991283950732346
0.03497842896438499
0.0487912141556191
0.04331936063996883
0.01488891517846722
0.059562903666507454
-0.04517909193930218
0.0035213029026075677
0.049893956506112135
0.04862925533150699
-0.041402880323378785
0.006637032521653239
0.019817262651897656
0.051193641473572304
-0.1042609367191329
-0.026657454830135038
0.014430462854710255
-0.04002350229747713
0.019756586676556637
0.04995035693157573
0.05768725569964936
0.03540936460250454
0.046744902456911264
-0.022077098173565533
0.0326893347725129
0.09272921975425136
0.09651891869864385
-0.04081388249965543
0.02174058460887625
0.01708067219957887
0.0005729942956806902
0.0029066969018599494
0.09453815820623397
0.012281656430368895
-0.010036332993059074
-0.03116020805601205
-0.1027584667311413
0.012423649104753654
0.0332954265614847
0.042684751428701595
-0.12418326894502336
-0.031122042553974768
0.023901071859729568
0.15260183812414083
0.5470797015479381
1.0147831043091917
0.5226955958238632
0.05407208882099904
0.011641051814062997
0.016514423043342556
0.032314035618430055
-0.051349077885825906
0.020727346289886
-0.06742274445129809
0.002635922250074464
0.04569496763881938
0.05035200127460794
-0.0068921577397678185
-0.07624633159998057
-0.026132752294099067
-0.044827707137210356
-0.043247141450078984
-0.008501636431048988
-0.003149258902885504
-0.09970377443234714
-0.04168445367576179
-0.03867988149211867
0.024067290112482043
-0.03009820458860677
0.09285287146064763
0.04878261506820827
0.02866396060070092
0.03656177707133067
-0.01894575477300658
-0.1650956512984195
0.014989706687128672
-0.02756722674639748
0.04571822397062478
0.026756044330705598
0.0017303787787950919
0.048256897885585445
0.02050454676105516
-0.03937020088046589
-0.09963639416647341
0.06106396312350018
-0.05334641424273057
-0.028374604527026972
-0.023545133005344807
-0.010298557573182683
-0.03354909347449258
-0.05505021843704049
-0.08859134518954592
0.005971059293900187
-0.04772951437861253
0.015989946883765288
0.021263044802106886
-0.04950020274773603
0.06918188327505946
-0.05760768046840734
-0.008650401749456535
-0.014175757241203853
0.04099139701890009
-0.030867228492471144
0.041484076055705095
0.041802889895703445
-0.024080861817367804
0.024261756941041896
-0.007788409383700231
-0.008955909583634332
0.06891021517227156
-0.018776169456843243
0.06703405188316529
-0.004863851043550267
-0.03616277967976906
0.02528700183138907
-0.05629984598029041
0.04531412498176016
0.10078793208592084
-0.12593537544715613
-0.004957568541248063
0.08414724091232656
0.03533215097002261
0.05935305705824692
0.02416035343174191
0.0059468521929916226
0.006867027501139678
-0.05098032961432965
0.007687453332000086
-0.04388086510126935
-0.008023160980487255
0.053287460529744035
0.015651896488485674
0.008544397561103553
0.08680941727754796
0.05641362373645009
-0.034750821525442635
-0.01849746266500736
-0.014727416936305547
-0.0436446017070011
0.04193130942376916
0.044584338287311454
0.04402057871602774
-0.07416263093452964
-0.01947772845341334
0.023057623597514697
0.01188536315903729
-0.011932954501797459
0.05177638464690875
-0.11093472383057659
-0.013699853977316882
-0.017231081325412827
0.0023382251865918095
0.07822816479803392
-0.036749521100818104
-0.06207203021240548
0.008905461192798468
-0.004927506136093868
-0.013100920435862144
0.024058513239109625
-0.08879187248650543
-0.009551452626548851
0.024466836982757107
0.047741114962725595
-0.047223256121007515
0.0002526189961979262
-0.07187466832159407
0.04668886544049313
0.05471853741360502
0.0019733124404306
-0.08405139181619779
-0.07864375145964642
0.08448965018368935
0.013143376597002376
-0.06335913911360416
-0.08142493435130739
-0.010457814092857658
-0.05992752883046466
0.05239192811355309
-0.019219455343373753
-0.06622308819906864
-0.06504866718702461
-0.00537089737829236
-0.029725487959915003
0.02374357524949251
-0.09205312964967793
-0.01794680008770316
0.006720363704557363
0.04231880000608418
-0.030956897079704223
-0.05155880191436251
0.015530098326252802
0.08698044026354662
-0.0693538096477729
0.00942600050089896
-0.06296085331536344
0.007424164849485006
0.018628666371647066
-0.015443109809665867
0.09196700978750409
0.020006771617943866
-0.0647107481728034
0.07482847614887411
-0.0097271089984374
-0.037213171021233636
0.19813138344462294
0.5284390124754514
0.8952562621001852
0.4742243894100499
0.1280528346994811
-0.04847927981629647
-0.07802770526057824
0.028978780385037387
-0.001822447757338597
0.02715496056710938
0.035494747127584735
-0.01518969679785546
0.09689906215860633
-0.04701171376034302
0.0013041068395890957
0.0659202616872515
-0.07434439810649034
-0.030777577815582942
0.07419629802118463
0.057957991085489505
-0.026206718725411634
0.1259242318530872
-0.09585301881327529
0.02365567597536361
0.03269270768936813
0.036151090698714895
0.013429914192521535
0.09715577947560058
-0.03032987029976843
-0.049848129271374365
0.054339428832781714
-0.02468076907251749
0.04440634412370284
-0.04730493277813591
-0.037173638819404844
0.09144875625102515
0.01979220326339044
0.059534648891378966
0.04229931193287439
-0.05614683323172093
-0.03514773403565586
-0.013411977030902845
-0.03455841013952475
0.0414419196973293
-0.07603113270123528
-0.0271432382813514
0.08778677309700679
0.08166848454468649
-0.006318041438881832
0.10554530023282507
0.0516027147518638
-0.04706638217799451
0.012890001796821019
0.03846886503468288
-0.08677639522443659
0.028713040913872497
0.02852240813422845
-0.03944950350295707
-0.04909180047533319
-0.10357202768607765
-0.006600033683561005
-0.05203020352336827
0.015597109639143597
-0.000655828930607596
-0.0019465907324250327
0.009888964235700001
-0.030325684283168876
0.05779826361359818
0.07095703036588578
-0.04555445858345594
-0.003709464529011538
-0.023523058548610767
0.03712781591433653
-0.03611360380329957
-0.025934555620468674
0.027590510333182983
0.07484160867243435
0.006882746277672412
-0.03393927349578776
-0.0023334555238254096
0.03051343730456791
-0.10123523764862191
-0.011622572610404176
0.07314645684988141
0.00869067510493003
-0.06320557546564896
0.0017873281026593163
0.04188872414630301
0.00671032203411073
0.07358290654061239
-0.017100142566263715
-0.0969270774868734
0.06498738784193984
0.018414882479297155
-0.00010163784542994281
-0.002494901594668549
0.07131657207747284
-0.06729213911185469
-0.0028560957796516327
-0.012713216337321831
-0.04665605193687483
0.044988864213599454
0.000960907382464547
0.05875573448555386
0.04794473280722335
0.0008544309089938052
0.026437874328396345
0.004265799592139713
0.04732072586243033
-0.006582469200065129
-0.0009176952785788532
-0.06323646243309548
-0.023443120914842068
-0.006766747017956408
0.024236696693308815
-0.008160658718655225
-0.038094270288555915
0.02258604793499163
0.03075129703476255
-0.04706930116550741
-0.025888447613744626
0.012241122662381844
0.07260556439315975
-0.0899733386968732
0.036420480393552716
-0.05438345675603551
0.012119184988703145
0.03631256911498279
-0.09028744681711756
-0.06289750462126348
0.037854464572344926
-0.01710362748831238
-0.017839636310299094
-0.026287767697216736
-0.006948103796403474
0.0014220127683960576
-0.03904070381740184
-0.05844032956053296
-0.005178114851951986
-0.0030644215326213666
-0.026063500955524926
-0.053477341840633956
-0.1089053422711581
-0.0010406006478851134
0.003135627314249651
-0.017153050415569377
0.03336611300143575
-0.0032282829692503777
0.01961115829712855
0.07154582401677508
-0.011321426800044233
-0.05631226546087216
0.007073841140667736
0.09082252712695735
-0.0052767054581752855
-0.0503293966545759
0.07712306269954831
0.501622166403756
0.9285758054282459
0.401882555331856
0.08364840977686536
0.034680592671781245
0.038931619161752876
0.013722448517852873
0.014101020747346047
-0.012709017394350859
-0.04411899509338136
-0.03675623688355067
0.015191148920466628
-0.03134963027979552
0.02497121210942194
-0.06313509864428503
0.009254931953412059
-0.040669655208345264
0.0008084891056805214
-0.0703264231745691
0.015276788751955088
-0.07905612523285695
-0.06420201164992952
-0.09016890958268936
-0.037769676482329054
-0.025510719653632347
0.014765010620885739
0.021671263500796692
-0.007335937920359916
-0.00015865560664001552
0.062078717248993144
0.14980670244979075
-0.004927250308853314
-0.012899681669178854
0.07216273020348352
-0.0027108909142630547
-0.004066204726884888
0.028385255859591868
-0.017480339163125847
-0.05010620467859951
-0.007298914566248613
0.02051474639150071
-0.01603474094584378
-0.08277697933597825
0.012817648865242282
0.022382587320099803
0.008129865520688393
-0.06783233285089502
0.010346747987813714
0.0008249949728058761
-0.019172230892564715
0.023354307971326826
-0.03861641997748002
0.05274318825147026
-0.2117641092378646
-0.07322755216979931
-0.015820064826864454
-0.0198146096830222
0.11891117710193358
-0.042421317929362545
-0.012757789693416038
0.042122629777143636
-0.03779255999834051
0.0135655880415062
-0.04004328445916471
-0.034315639773490295
0.0070091124200099865
0.06615825718541095
0.07750265457492152
0.008053907267335035
0.08107089825613861
0.04536003205846505
0.0367394305566982
-0.0012605491436995344
-0.043166154140118144
0.02759221470265126
-0.04984164515526071
0.00617110994854899
0.006415524043318455
0.020352130824125014
0.003843910000855688
-0.07112380583566873
0.08324911568104507
0.02380670429732334
-0.02368182909291903
-0.026517324764417483
0.002759577230841248
-0.05526395092584546
0.0037170588956159864
