ecg
-0.010098381716855995
0.43644732239569134
1.007237649278503
0.5315097129261684
0.06707934136858497
0.025876466693810954
-0.03320111942632803
-0.029618016955915278
-0.05575973380737579
-0.06839799412607854
-0.025265673674238955
0.05650257555025744
0.024044529753308556
0.013529319748733018
-0.014231001572092315
0.021131353216596295
-0.023687394311526604
-0.0400854907130499
0.026549018718173334
-0.02838631660008095
-0.05339320836146495
0.02158673620694041
-0.06789739493316736
0.019436755093175745
0.020305880673377026
-0.06434347951496909
-0.06093377683715021
0.06524796520676979
0.03109856614413294
0.024291951673944157
0.010813316052728391
0.035713661030250234
0.035712583669364126
-0.04024165386208448
-0.009503949802597863
-0.021917888050492884
0.02867031214969031
0.008443130608584279
0.06325073844838361
0.013936262107303372
0.001837823262283623
0.040799970214784306
0.04129019966083906
0.06112944207934438
0.01023168681257897
0.10273386434547838
0.04624966988784407
0.10478391224618783
0.004280391779980682
0.11343168569120746
0.0357552728018136
-0.051246123103383535
-0.04761368765131951
-0.014832916916553238
-0.015430153696766216
0.017012193161156534
0.08792300510766132
0.016187127041426847
-0.05032951577123397
0.021919503005389356
-0.020107594675119675
-0.017514199812001162
-0.009308729255637293
-0.018359739963263205
-0.0647685324863667
0.004780336635175793
0.0870415759517433
0.04003049903449176
-0.059459011459451476
-0.12655760877002184
0.016504512315443292
0.028903042913160006
0.028789398328470613
0.005639216359342344
-0.05178007159750462
0.0831268985642106
-0.0062731987153101035
-0.025967666234842597
0.02469872608442868
-0.025233887047426615
-0.05663807488535051
-0.02435105530746258
0.012117204885009766
0.06545179087939235
-0.09021405934426034
0.0212015832807715
0.04204536148443616
0.020351218858450554
0.03175753229578364
0.0706766904703972
0.04711177303469712
-0.019848417720192316
0.04782746032160413
0.008115712652384715
0.039208053016309447
-0.06246571137694379
-0.008728653721286275
0.030168238381996438
-0.006345590415880821
0.026628282511201997
0.06713208924250333
-0.01365041140841191
0.044244158560641365
-0.05141254323027011
0.03796328113792003
-0.08162302402507038
0.009846788477716606
0.00824888117880975
0.08604727714219493
-0.024284066380983724
-0.0997855623343508
0.026246453445790976
-0.050622072788977124
0.003028780252226618
-0.033002081486005794
-0.01031187307022984
-0.10733796086966303
-0.08650248479220468
0.01909647749728793
-0.007253734173013793
-0.05723962735441354
-0.027616546202060617
0.024539103480488433
-0.013887251844462354
0.021732366993589367
-0.043789585273839964
0.02743067896937723
-0.011949335134427436
0.019093935551515267
0.014586343759754719
-0.020195002017835695
-0.01775715527577104
-0.007573883651619394
0.03414596631413515
0.0863864325882901
-0.03944794818579851
0.0483415160690644
-0.013212907401115997
-0.005188446650506515
0.014221824655487221
-0.022637730458433515
-0.01793397916875702
0.09355586929864539
0.004215873306096123
0.02478588802713939
0.09099226418732892
0.0894445656818666
-0.008819672540686965
-0.03878558096719019
-0.05371469329365308
-0.05883248289115425
-0.021374456999924643
-0.05508682939621617
-0.0031990469017731133
-0.03583166291790852
-0.016844875217864746
-0.00498637721010271
-0.015983576199529014
-0.05258917248148747
0.01775841564092102
0.061534259389949365
0.060338229742515785
0.04286540008408021
-0.01361386073520215
-0.03158655248345515
0.03527514703062969
0.016355591021851506
0.035274133108249416
0.0923448340606049
-0.001108078084102674
-0.037842317139967226
-0.026429194456294894
0.0070225451575165
-0.02858145304779123
0.03733946234555576
0.03504454816955579
0.06446091692713335
0.0648422757624239
-0.12617591236511516
-0.03924664962994491
0.005458265839034185
-0.05598877333410151
-0.0028680591255256815
-0.03868559388587134
-0.02070395467344939
0.08366833823937884
0.061537047869260064
0.0014894839567098916
-0.04390306411303724
0.017280755703376557
-0.10692819931108302
0.03390215755162548
0.029215013090070602
-0.0578831329403267
0.06784868666596053
-0.028808084088083597
0.055177194468896656
0.5097972781623641
0.9350855168438266
0.45779187129863086
0.11851788141416132
-0.02159009079646062
0.07159286318354018
-0.0767840928847748
0.005735671689567535
0.05094789068896369
0.04061627053205092
-0.03380247491465293
0.09213051036200016
-0.09272027717030537
-0.0012437762130202146
0.04663032525263175
0.061376852382018336
-0.044618447976964855
0.007672151275145112
0.04014911662222771
-0.008230728017951598
-0.05939179818297821
-0.08568529757955608
-0.032583421495024543
-0.027512667220248956
-0.03782773788581481
0.09326577111057473
0.027887558782238836
-0.014262706660611324
-0.011023230146332693
-0.008017026146343476
0.02978751881486105
-0.05388797497477568
-0.04779474728997284
-0.00127827055011537
-0.13789130430552218
-0.04037291200166086
0.04487469951655602
0.03941398756799301
-0.08044364501690149
-0.005528189378116788
-0.06614138911510657
-0.038174196241254135
-0.03147560304595066
0.03274866688567984
0.04674639510102253
-0.025647450442126258
-0.0756446449790958
-0.09032032681022327
0.05641551175178067
-0.014372956541549634
-0.010917832824815538
-0.057807178735103326
0.045536447169356536
0.03012215916758796
-0.02194281003249191
-0.046901046303265394
0.008674391716012952
-0.09316324250787401
0.02401534754968646
-0.015651139410536977
0.008783327212898203
-0.0021979587659544278
0.0421377328909113
0.04531951176495946
0.05187924634759786
0.0048449390817617895
-0.00410124338996837
-0.0339394457564118
-0.029318073211897434
0.017444919493276725
0.0007431596806336015
0.06075360126280697
-0.011782877365606313
-0.0719728735351141
0.007321940565796919
0.046315944326073895
0.025591017937230925
0.02360742048384312
0.050472050369758215
0.010472828256792157
-0.08235015283631697
0.0421019722899329
0.01399490221747881
-0.006315662292863929
-0.06127098193285137
-0.03997796441816278
-0.09228254467757313
-0.026900713509727326
-0.030173853952685566
-0.006256653352708411
0.07807886194445318
0.0478064542301946
0.0017015476384426552
-0.03781234320306939
-0.05758840997946535
0.053408682482668716
-0.06419032005858287
-0.05843090472739239
0.1282376931310719
-0.009931686573371151
0.10374546430831666
-0.017713827066812824
0.06235526923366376
0.013374172752550206
-0.034878327804063566
-0.04466212980826479
-0.11123177866083689
-0.0499642859021812
0.034309221639923095
-0.0038275059554503475
-0.028564812715695793
-0.00592223846525217
0.047453449965973955
-0.06930460487870208
0.017101900966477637
-0.07505116889710756
-0.13937617250385056
-0.030974769915731372
-0.024401720394314562
-0.01669014998445072
-0.005419720362361013
0.026019784289035636
-0.03751338545171777
-0.06713274429019626
0.05347616810277089
0.06292133041581888
0.00977330347770175
0.022464769108443423
0.04935198857420633
0.049852780820666215
-0.06083640039941523
-0.01229581866987569
-0.08365893531709706
0.013258502105257289
0.029575443551759513
-0.06911101787738236
0.032518532219521785
0.04715436772115772
0.07451538571674479
-0.008050913324093542
0.023706152319095848
0.0659138754802988
-0.05924576005710705
-0.007126563507771532
-0.06458036071011664
0.002178712872245333
-0.011470420138656753
-0.03208300222070281
0.030755772554862944
-0.03808928587293782
-0.01994979962065756
0.055849672242219574
0.10091112308458078
0.07156353705923953
0.013128170513464996
0.036704830700557044
0.014699350692808828
-0.10119234357144812
-0.0808962303665342
-0.014227276938473817
0.09605529069390119
-0.0595825840315116
0.036469743543739684
-0.06240783129956329
0.045583470789261726
0.02792583128336079
-0.06316007134200512
0.00580329437341005
0.03274720379028511
0.01150509060644183
0.05968504289171094
0.03585864477684876
0.09237644827376636
0.07921675713594431
0.02495326866158339
0.041236664959104
-0.010590494642995291
0.020827577537541556
0.033600516493983434
-0.02727431540643261
0.07652541048873093
-0.019067824019383228
0.015335675642365546
-0.009088298457168914
0.07352569577779998
-0.06887410875734314
-0.06395133607218052
-0.029707145282679443
-0.01887122362311285
0.0027477769928059763
-0.0638997375487259
0.012587733436675914
-0.06478676776645163
0.0067775777415706165
0.05953730718213388
0.04289519993398336
-0.01740863297838847
-0.030422001602423
0.12848232843136104
0.03451526825422647
0.03268574511059116
0.05055517279392302
0.028525845930539397
0.028157445171271375
0.017852552529528897
0.016284247420566368
-0.013819192170972506
-0.003455190519120053
0.07660221805605809
0.04293208330925017
-0.040609195153117186
0.046927048749870276
-0.003138772724409494
-0.03657699238619138
0.021360193908123465
-0.04217967067662298
-0.04464633428274755
0.06465016101130451
-0.06057170786876153
0.010592777268246813
0.04457914147739354
-0.04048955753071237
0.05563104180748499
0.031736576372987595
0.2727815458733333
0.5084730794932868
1.0948605800793527
0.44098686065292836
0.06180594948731653
0.05672009799561685
-0.02636607832634354
-0.021976576163238542
0.09560366130596178
0.035460646565815275
0.028751362740502457
0.01598816299530847
0.02088924668928451
-0.08589599474052569
0.009818926912127128
-0.03322368213332825
0.052377031072637
-0.03389787685801492
-0.026345644482141634
-0.06675756136106742
0.032971272756358215
0.07274023400758288
-0.04355178586999995
-0.03218766815369928
0.05105763772578427
-0.002012084122519873
0.011761012544805915
0.027224753550329623
-0.011252607368206324
-0.017595311087914203
-0.045486433800627474
-0.050419658883764665
-0.0940549609811096
0.008185907983952453
0.008161484688610818
0.023341880557313358
0.04436622640259808
0.011491678527296193
-0.06944853969979613
-0.03428242537491164
-0.0494493524261117
-0.048075957434347755
0.028314761394963535
0.0034165529717520822
-0.04431406558526517
0.036640801333130635
-0.010316471511909052
-0.03699114573385631
0.020679221850917546
0.0687511681664998
-0.031692059159477655
-0.04686073500623902
0.022424285647874152
0.008907984771383383
-0.021453813026521884
-0.030176330200987242
0.007465909444397283
-0.05811353035645922
-0.02054442426724669
-0.03465296154936231
-0.04581822400391467
0.012520158757347022
0.0927102076070776
-0.07740317708727229
0.04328942928814444
0.0047746471762726735
-0.1972296763839559
-0.0181769895653581
0.171479818142388
-0.10239035286451018
0.05932670604501753
0.020996141988934233
-0.04513961565664385
0.02482792671009781
0.021294562138746555
-0.003117038099849894
-0.015623577028872898
-0.019611722522762994
0.01497834085465142
0.026004396966158055
0.049018592096789715
-0.007991826307091455
0.01795381421216835
-0.06449735407691935
-0.08670925507755167
-0.02159033385429084
-0.058019501309724476
-0.0004496877570334026
0.020639298408284143
0.004227558979317594
-0.025855491296035073
-0.04241633900009696
0.03546749437000677
0.05414100936947963
0.00048756292600745586
-0.03843380637007274
0.03750778836331529
-0.06241854347071103
-0.05320076527261497
0.03219481285297895
-0.08018450390493831
-0.06374173785155575
0.0603539573972893
-0.08169599675968543
-0.016251862671059377
0.0877010581491101
0.029776533606292323
-0.05156045265476247
0.01764143658215006
0.02115379040071184
-0.05511382281202404
0.026279094893476074
0.06620264205885018
0.07870090768415133
0.02251762694317392
0.040751093411079485
-0.04510431026832794
0.08635020321401027
-0.04404555315092015
-0.03378523297968706
-0.020994522842898374
-0.026251023845270872
-0.058262206870964
-0.014154589911979152
0.07638858127699419
-0.031503838734829946
-0.02915202255398098
0.07050611034311315
-0.09959316510937823
0.04072350766635499
-0.010835754270681754
0.02447085131072082
0.015202126217502308
0.0694338485314116
-0.05663780206210683
-0.06696743124157244
0.018027922604097635
-0.05623845685648607
0.04063335839982248
0.02186716808642708
0.01696703031707855
-0.033635391946730604
-0.0016277518009544575
-0.011735443635201398
0.08496115066717741
-0.01383836672402796
-0.03322925859431637
0.05104369846756799
-0.047210100775139346
0.09121798453468544
-0.07957111091659759
0.08954241794558057
0.00043865920399322345
-0.020488364321693094
0.08723863599475279
-0.013040746723999639
-0.051663586540825285
-0.003035395515137186
0.031545336910008284
-0.003874169455445005
-0.014598783647615127
-0.015608316945577983
0.029091355579607122
-0.05820516007180163
0.022463437714095227
0.0762539632463035
0.07092887139027018
0.07388751201704667
-0.0433282056928907
0.08379293343544433
-0.007351785704382366
0.020598604055241106
0.0007454750624776032
-0.03214225044413697
0.007910010739872573
0.03954370145178401
0.02846193804679122
0.020017336095623492
-0.04076938873405877
-0.007641534501578217
0.01293960117288353
-0.07995443752843073
0.030152893770215173
0.02107664770393699
0.07170326977576118
-0.02170285426308442
-0.003314031292412848
-0.00017382859344989497
0.034200845455992716
-0.02216027820902012
0.062338897843233126
-0.011197122411164958
0.011498247115961662
-0.03571597917204046
-0.057559799502507385
-0.005829938680719071
-0.04270840843295007
-0.05097364953632133
-0.001862630490376048
-0.0669100554522357
-0.016114192164233525
0.0013260623097898006
0.05353830625110359
-0.006861687262925395
0.11955779486635917
0.4364994018800968
0.937555839651354
0.5431556138433413
0.06481866338061744
-0.04933648452381199
-0.050563550573851784
-0.017144053407328386
0.03191783406812032
-0.10917401558517335
0.13140839532656115
0.003288917531679987
-0.04346586153465662
-0.008278118080820648
-0.048564860516568054
0.008703541568727739
-0.04034768806184777
0.006938107764972095
-0.024363920731352934
0.02939978008977366
0.08597096973098133
-0.035583513211985385
-0.002471843982709431
0.03314035713122566
0.06103701128802228
0.01882089752648073
-0.03752570161027854
-0.06022154038741112
0.013536892355577632
0.03360528900840969
0.02597447270246549
0.03237692186366712
-0.06372215271609623
-0.02853591649448542
-0.00787609102084154
0.01228356054324999
0.013838754730232558
0.01701349468997265
-0.0983151173157429
-0.06610602651429325
0.002535206513198584
0.007636307519424315
-0.00785941178642502
0.02015771835106011
0.032885295939448604
-0.05551435933436554
-0.0863643634728517
-0.01984127713261124
0.03336488268745123
0.012765175923157464
-0.014162607863648743
0.0615303193966287
0.10632775027746069
0.036377426994402044
0.07886777722082605
-0.07502031387470125
0.006311282408455927
-0.0263599140258815
0.03482604726926628
-0.06158294331488067
-0.00184200130624055
-0.031507587458957924
0.040324371485344415
-0.024985683694547543
-0.07785741198506121
0.02333996256306256
0.04303786032379257
-0.04440162180152234
0.0335203618061043
0.00518298712603862
0.004875224163887942
-0.10888797521316254
0.05745415492872452
0.01768866189006172
0.013874088085370849
0.02089109305817332
0.012232242669240894
0.0743184580556973
0.055162350523352235
-0.0225599548367159
0.136951773733032
0.03851640170498432
0.09753306179895925
0.011233139121489405
0.0059819095360917
-0.0620535328632152
-0.08868322240478876
0.0009474609260741505
-0.016996269475201706
0.020051983937955098
-0.03421813787705945
0.036095544915731324
0.04530760960686503
0.08686622771456083
0.11841436042056885
0.037694509520222165
0.10099079542188814
0.021987181665971186
0.013948804504720653
-0.049291848116346876
0.004570386759654243
-0.015948106401819786
-0.04742305913820453
-0.0773188605577384
-0.0010425213261891666
-0.05507069166806682
-0.007143346360008626
0.0401549029930143
-0.04448193149053961
-0.061716539250904846
-0.06650712769662746
-0.03350694157146372
-0.031325273395209845
-0.0663655007018283
0.047310999497982155
0.028286065130855294
-0.07626298694297502
-0.052921391324309446
0.04225767103279099
-0.0654636858986663
-0.04778353349279242
-0.010493089348040024
-0.03812597038843446
0.10462885050562243
0.0226348929056284
0.013657168301591386
-0.002352526679362161
0.04325264992216307
0.014079231947080615
-0.024521236259251653
-0.08207218386559148
-0.031711826066243905
-0.01685238908737097
0.023835392332609253
0.04652937512839609
-1.3658280896773325e-05
0.004230004814875982
-0.05987446641695002
-0.042916464075574
-0.09042725303709398
-0.030743099035274585
0.0162982305160985
0.03290691259255277
-0.03369541773412729
0.053298311024621806
0.07348525463262727
0.04337162749689022
0.05953705176360148
-0.04602850037735994
-0.07196837637523763
0.04579455388652045
0.06899795488519228
0.08328483568180443
-0.08354223420998523
0.0025712803609441656
-0.05657174582956548
-0.008814716223494999
0.04243732787260354
0.018666966772912696
-0.07338623465862341
-0.009285478669041494
-0.026264305745396885
0.04607147063636788
-0.03648043924615233
0.008073844309696415
-0.01602608492756681
0.08880842619746092
0.034726177423165104
-0.006121403172294485
-0.018414526263909877
-0.0003242963280570618
0.10947945764138077
0.0293941229617121
0.015652734759353398
0.03445494703132697
0.02885055565605806
0.033255287780381976
0.03429092815513204
-0.04900109712349209
-0.06487877355311822
0.034863853956418604
0.018418910081258247
-0.027204560334380186
-0.03426594225285329
0.025645817058797073
0.02542650479454289
-0.07499184289346415
0.0022656025614545897
-0.006321896640612884
-0.013254606051184729
-0.05436131253726213
-0.03458900775904954
-0.01580383999838515
-0.0929419993428123
0.052763679180390224
-0.003521302038014586
-0.028891075420772874
-0.0507818701615794
0.012401764852240676
-0.08431267315378684
0.03619664980917677
0.040465634683589935
-0.03291554391578241
-0.11341892656719572
-0.029970469097480225
-0.015503923999614134
0.09362340485728358
0.5892811549908626
1.0168963444817412
0.5849678645058372
0.13966585469792642
0.019709291629535358
0.006341806695605508
-0.09842215733552877
-0.10313243032218462
0.03776350664028245
-0.003828597853349726
0.05177403378588668
-0.07829425675188487
0.016106595826350847
0.023011922148290245
-0.03181228598606172
-0.05325987714667705
-0.051955046545163024
-0.03531110176194372
-0.02476245513794013
-0.030825866653527254
0.015636933464801852
-0.00749113943695593
-0.0625489281466751
0.027389962295606852
-0.05930448101456812
-0.017501852524743386
-0.051385324318126216
-0.034528132993343445
-0.025423029752517087
-0.023057017406270378
-0.01173890726936201
-0.002096137114270469
0.05183072359035136
-0.051747952728129626
-0.1445040371071358
-0.054197430838404996
0.05397089877415247
0.03185890040076812
-0.04020301417815968
-0.01881647435899195
-0.10047607903800806
-0.04388580424239211
-0.039977896835367815
0.0374027535877274
-0.009080264681056695
-0.054928190449710784
-0.07112268378298992
0.041565589706915596
-0.007760857166156804
-0.04914835426702652
0.048294663381241304
0.03636398664583992
-0.02584074181694665
-0.06112291939713062
0.07210254690326688
0.030161900754279825
-0.007947608819606938
-0.062530867485271
0.0208393126399056
-0.05269977810568204
0.03000944208973771
0.024504135673843318
-0.03623493483264378
0.02470182362243775
-0.024948561404419135
0.049481243282852895
-0.025203894791384802
0.0339728633740141
0.12888608908897742
-0.040896455923461014
-0.06951711676762858
0.0026057299778504913
0.024378903721381653
-0.04432651477378858
-0.005841266663163932
-0.04059950432689614
-0.07764392087766929
0.011718203089296107
-0.0013692052958725251
-0.05462997447046787
-0.04470963100387618
-0.019843558603576505
-0.007343257017989483
-0.07318574539733974
-0.03498453312747014
0.05524291325480897
0.028535169095032314
-0.018422233405502652
0.05379110758116558
-0.010836580651287083
-0.019665996821303038
0.011690014346770625
0.00854181363213769
0.06716841296348236
-0.05400892605794262
0.03413574846010474
-0.013879770387994659
-0.06628265644709551
0.015600275700855638
-0.022514579875791307
0.06392794756246446
-0.04247519175361679
-0.03204378594851149
0.004898627581250879
-0.08798933272241476
0.04937939747547108
0.05545777435112297
0.03331104755879013
0.005806643627762405
0.02996901532341097
0.012284613381689735
0.04221635976277983
0.08784284899521812
-0.006073277024482896
-0.013781030692427488
-0.009745261434328602
-0.06024456230604428
0.004535734419477689
-0.08093788828678947
0.059787420551931286
0.06416845328272162
-0.04325199848544363
-0.05377502960553929
0.04388716042705296
-0.07702972653661784
-0.045848877064692234
-0.05345005770505395
0.017767135461811256
0.018486543460370895
0.009596733255701694
-0.008576812028709526
0.02936318156264533
-0.0012675081154131065
0.07244398531384784
0.04583780353244988
-0.042745486412303496
-0.021935800087047166
-0.014377663122660653
-0.05232412166604788
0.050396758562004276
0.03521864046216335
-0.01793457730098467
0.01897504348645151
-0.026111999354973287
0.04301327720473272
-0.01245354360551635
-0.10327508749997155
-0.06771986858268829
0.05966638060426946
-0.01239192644677381
0.01490173026063054
-0.01149472918179113
-0.07514894883830758
-0.05789695406596466
0.05036484816881982
0.048140445621500494
-0.07195451270029618
0.05653098537388104
-0.02832382938998438
0.007012299857873852
-0.0030748788967507185
0.02959772508531603
0.03908072750766814
-0.021179592040884064
0.052548465645138424
0.06695978942579923
0.016877489376155467
-0.05348300288638078
0.021365240679972086
-0.0259810676820251
-0.018297506619680777
-0.04686874966513645
0.06985186445052347
-0.005325336440846252
0.0668673761550734
0.03580038176902888
-0.03985360020370863
-0.03883568305455534
-0.008804028348359675
-0.0021836353510166786
-0.021384113165462713
0.054385460274721846
0.004195066197448675
0.013388606716435117
-0.05391681440569476
-0.08965715618704959
0.043341050427654584
-0.05002225600801019
-0.014143376066187577
-0.004354130895823693
0.0062919148242378
-0.024884703738280518
-0.04166107972799438
-0.026350658564845027
-0.0863192851108688
0.02040098466225114
0.025879538270708255
0.020431429845634536
0.005026824162748
0.05370560562406808
0.05892084028302316
0.05144822064099001
-0.0034168960177382614
-0.007017708407445502
0.0030484911796596625
-0.03327737562948329
0.008678622726596807
0.002726444973221947
0.04400180345716609
0.0686853257942953
0.0132110882739926
0.03353537978826571
-0.0006381468682031453
0.03817323240766656
0.0423383582620363
0.17023421182105283
0.40408694612987245
1.028640001790846
0.4866030159313802
0.12352375466441985
0.024794166474454715
-0.03982622363495035
-0.08367043685963545
0.016425349086089037
-0.019775819023141458
0.034253411871663475
-0.008478524661056237
0.03665014339743427
0.016602997895183803
-0.07089184514469253
0.00045953945809294175
-1.1137535011519894e-05
-0.016316287935589802
0.02769341508382689
-0.043965432788744874
0.07704285112878986
-0.0688908276275703
-0.07027476772486858
0.029331803413767562
0.10753525979943407
-0.031132963148221213
0.022882236183387698
0.054225627372202025
-0.011222610177984581
-0.026172232069425528
0.06438797736933913
0.016949767663442653
0.02758774193149013
-0.06307392376427544
0.022172270200216337
0.04787309299283078
0.024398472780627692
0.02638924148011365
0.08104968682211516
0.028190180053715954
0.059467368980033145
0.03981678438200513
-0.027992365703764878
0.012862651565731048
0.02896994780625456
-0.11431923694069296
0.009427640543496136
0.06048284491693961
-0.046045599465711094
-0.05483120048007393
0.01711704504911959
-0.05733441480869046
0.05667849724983029
-0.025757500936650114
0.03390100955283495
-0.04560694328055142
0.10095970656142256
0.11041124170000727
0.05636945758784678
-0.03414071087683989
-0.0034893263005051503
-0.09886301110892771
0.06530920226854457
0.005885229957517038
-0.004454575595057751
-0.04510030467721886
0.049305866312723136
0.026943883573591027
0.0022665250720049165
0.021508462539575862
0.09657552512052701
-0.04549391633352542
-0.06289718718355916
-0.039047314251680065
0.06009656643638529
0.013999216207329935
-0.038534646737389294
0.026341657111930546
-0.024830973366779672
0.008721150675545943
0.023707340202660417
-0.030424673573302953
-0.09079599321751335
0.0120796475062584
-0.009690014344796412
-0.030984846272485662
0.012345223258070708
0.031138708663351555
-0.10897502031555927
0.0053562228422136095
-0.005880885672896359
-0.018707370367054204
0.03258425757216906
-0.09340700238033212
-0.14706481030577495
-0.08068311576281201
0.035461279319457306
-0.023948896404616313
-0.012304203200723604
0.08521206138250531
0.021663640179655802
0.05094576606465683
-0.0033509400117327872
-0.10779202100625183
-0.011249997746805967
-0.04150861343928742
-0.040297582470776715
0.0195652166183798
-0.11068986812296998
-0.03488215273194732
-0.022049389187999466
0.03225710528868603
0.10402831385419489
-0.10521792903723802
0.004926037535146977
-0.01720021199815363
0.01238699054492399
0.13065722806806315
-0.07024059979817768
-0.0300708375079457
0.06376027781106233
0.02216419195189355
0.03980054702808258
-0.02155302171210953
0.04849815548020895
0.044806524376460106
0.017724040630629306
0.09891326608700303
0.013593325860151896
0.02126098212267953
-0.022056772201854178
0.021993957338791656
0.014560728637174473
0.03351835276022357
0.018688853534020514
0.019404352183466846
-0.020897602510577713
0.033963237703199006
0.009175879678217728
-0.01624488063309051
-0.03917688168426886
0.04185703790784945
0.04159199448909084
-0.005778613223593209
-0.06388080963507466
0.07465153858313045
0.06623823911698323
0.11955670066662866
-0.09382193869929026
-0.013810568335080693
-0.0368252427520489
-0.08927831776588764
0.002893844643879823
0.012473336885549524
-0.0037105521227294423
-0.08090064630682141
0.030728129217212553
-0.059439758534630974
0.052255439638662804
0.04961350580740224
0.019599033310862962
-0.020350373471891503
0.007172522962443754
-0.03070611102383157
0.03156301472578739
0.07063908856468946
0.064890079700061
0.0013530284512046642
0.07057469448981658
0.016918634327529786
-0.11640251250065206
0.06503101313949138
0.009254328641307378
0.023319986701019212
-0.01983017085238966
0.06703077089611488
-0.03691313462089381
0.06248978634422722
-0.04914794417236993
0.013405824825160713
0.06907281706142841
0.07432044484516145
0.042763694383241756
0.05587323331109918
0.046294309788734334
-0.020764800965477923
0.025979840340393592
0.014286251774835374
0.05473036299402822
0.05809722347766869
0.0028474327386904482
-0.004676807740465327
0.15255513905172777
0.49092702774645486
1.0571482719713161
0.5071745089462608
0.07274758659322308
-0.019038330367848716
-0.14161721885145329
-0.003055957827897556
0.03196354793138874
0.12761675312761908
-0.030855136342432005
-0.017073763433764513
-0.03339086651901327
-0.03835149326429701
0.029069812453983497
-0.01953337014623596
-0.03615700745093664
0.020179729630396662
0.02754869268467198
-0.03494805547932576
0.054486549012275155
0.0833820322374527
0.0355309529111219
0.027046187155296053
-0.1144274721707977
-0.04239680779867545
-0.06904704170968307
0.04649654053246919
0.048967301327129564
0.022196942742675793
-0.01257948745264918
-0.013258407317690266
0.1928315087188497
0.03995257631831219
-0.0046709361055576855
0.024490500221648615
-0.06402947244163555
0.02862226057009647
-0.012560253469801436
0.025260844881256007
-0.047407616941996196
0.09113084724740002
-0.044225859064424666
-0.01710585978629288
-0.055076805116123374
-0.03631619919901071
-0.006908229921564677
0.002475376023947056
-0.012067770899255065
0.02542791200434415
0.117666933587425
-0.009730234067026972
-0.025039447514027886
0.0688612907385744
-0.04738170582551049
0.08249253360496406
-0.09173830910275708
0.05006895029962952
-0.04734106263937065
-0.04892180040267093
0.019713206460486028
0.04570370248338479
0.03468814166088925
-0.034349876710556365
0.043238671294033984
-0.04167170225447686
-0.012651654035265362
-0.02884491256920072
-0.007500921108196815
-0.027075161480387907
0.00897143110344151
-0.06765171366157129
0.029472621627055447
-0.02514126095799827
-0.05272334991962804
0.051613314786197344
0.09303606808241185
0.027809392011833273
0.011978599487038243
-0.01944072357567278
-0.06657212241330494
0.028836772261206112
-0.07820653607240871
0.023169393668622917
-0.08650047468377842
0.010142019389713229
0.06433416658276672
0.018230516472240308
0.05535929517874712
0.07360362964389043
0.0019785428124903044
0.09270314108546951
-0.014088663883968533
-0.049001432593256976
-0.049434414108180835
0.04766973987935651
-0.012212320805981303
-0.0217298963903178
0.03701524756269961
-0.0780061439005995
0.1312451508224448
-0.05841445300658769
0.03076408856587406
0.027140882940020518
-0.007206344724235332
0.055491978650692976
0.041166076880732844
-0.005483192161335432
0.03131450666456366
-0.1101326886348206
-0.02009790150069721
0.027630558181420142
-0.033048240719559294
-0.004120290472030791
-0.009277946436677256
-0.08544679212457482
0.04553089674191654
0.006457672892205036
-0.05889560449115116
0.09240328149699503
0.009461654193453609
0.011973580301700523
-0.004804176294894618
0.09529643859152641
0.046623182898700564
-0.03511202013989451
-0.10384024639170196
0.03396405154090047
-0.006335449170362427
-0.01779794783874456
-0.007456023411115466
-0.09004488639779164
0.006841614722813683
-0.012470770909247215
-0.022321100459061972
0.0033221076881759536
0.07798271725885086
-0.016879030932171503
0.06258988874291099
0.008118109095182435
0.06697689098075227
-0.00301730950768928
-0.04360899233504009
0.10647983560461674
0.05085843438023405
0.07161266809713697
0.03012806140957265
0.003215029454971616
0.049542091670100125
0.029415553466020317
-0.026486549072444993
0.02353459605761533
-0.01712418356555317
-0.06409166678972486
-0.0030185362122237924
-0.030179750851493693
0.10512686923347002
-0.052711850830579214
-0.021763454584781797
-0.02848319835599309
0.039136653537975984
0.012643930469333146
0.09539656657222353
0.07543794732704534
0.005281189294271772
-0.054171244966024504
0.018755664518042656
0.011699551252622634
-0.0746136096991928
-0.010072270829241607
0.010003725553940883
0.0021814232533509995
-0.04889397019117465
-0.000603729060437706
-0.005851627021002088
0.024415593734480795
-0.04550089871436715
0.05859121847698177
0.0248307995571878
-0.06613406413892038
0.013498627250137289
0.002112791854440485
-0.004248330882626895
-0.07346115394372342
-0.015887736410129236
-0.03174491508382654
-0.022447283868711893
0.04536973044352015
-0.03362391294620147
0.10961781833287182
0.12385759944592492
0.017989742974615187
-0.06421666178251653
-0.06423821177425187
0.02372089185590248
-0.011563576341683235
-0.03630749588840012
0.0006347454451827239
-0.0649478186177275
0.11916207196499994
0.028766826017993286
0.08187069124547147
0.048141210151839475
0.03808551425320737
-0.04447075641257405
-0.1316053538870681
0.05210836995915968
0.0009407478620218987
0.11036203382862973
-0.021454739873741066
0.0011551093472225039
-0.01675470618335499
0.06674046848786999
-0.12085663043972894
0.019844439343711592
-0.03260869594736953
0.0037679400984020565
0.07783251959614522
0.04643248444472745
0.44553663696710927
1.0941354436445248
0.482438473341093
0.07344200779622793
-0.02575774845303327
-0.08172854037088415
0.07797165216035332
0.07217553303236
-0.08652734710767605
-0.017069763077280815
-0.07833388165232978
0.0404024597794297
0.030001121087514623
-0.04971219449620594
-0.022099717748458262
0.06771200859974374
-0.006941134742053903
-0.031070746727330557
0.04851080078321928
0.003971743357265583
0.06437794239521233
0.04795630814742507
0.032652347203386306
-0.04408096856702179
0.06670615974843605
0.0003799151467583404
0.003935334157658085
-0.07510099217249916
-0.033874038680772475
-0.04596889360723139
0.025580691626026608
0.04525168987420246
-0.013640731754972124
0.007223670461427013
-0.003317827376736489
0.08832575572005591
-0.11620226551571669
-0.05433692268921422
-0.01457581346192928
0.01589805654459807
-0.0247852446422518
-0.0815193741148259
0.03310309345131431
0.08458795587942587
-0.07838416622297854
0.01975580624510174
0.05662241467979778
0.02282472117427377
0.05300184872644368
-0.018735661812164822
-0.0441119405413474
0.06545193170219236
0.018857354058725174
0.009645023680413293
0.012106237877765297
-0.07275760416637725
-0.03232279755326678
0.00903727373936972
0.0864399200377573
-0.053708687188925665
-0.03616416366996362
0.029284775520629733
-0.12030879642790003
-0.009968359178279113
-0.06125689436042834
0.10757910925404522
0.039610885678049434
-0.04627145444371003
0.003960682614844001
-0.04848109060974959
-0.051974856706819256
-0.06418942256819797
-0.035125652805390845
0.019578969927514418
0.059731062324777075
-0.05346879283035849
-0.04680793851281503
0.11267759048094864
0.00667510697149707
-0.015073218181392595
-0.041622201618238715
-0.032955741726425354
0.002386572249320923
0.05742450889129164
-0.055913651303111545
-0.012152843542597777
0.08934778284557149
-0.07667965474358632
0.06324071345313527
0.10492172038383672
0.0020476347947009205
0.06579537476559626
-0.09581082360562987
-0.01339317695293803
0.053949143951530415
-0.07211894709004925
0.06538322412780617
0.12619078598292655
-0.03641430954554727
0.037126305730970886
0.04816696972845452
0.08024678500298815
-0.057122436676768855
-0.0326771821235057
0.03229751093775735
0.004548434299556838
0.09110682561918497
-0.015286231783499494
-0.021231880583488252
0.018473109412027258
0.017317896551552515
-0.006032933727243633
-0.04606846555248777
0.007100938514596981
0.0231774442983887
-0.04250965346209496
-0.05682857158451113
0.01853367953797107
0.15472664419937462
0.0632897589178544
-0.009283500245536104
-0.010248351744864525
0.008693833658901964
-0.028902810310869633
0.02070393674868828
-0.0730189051918481
-0.022220965872455672
0.06865434228635203
0.03644111323241974
0.0352584100170257
0.057044252828762146
-0.01592962820737318
-0.06915295454106342
0.010858247038120444
0.023952238416694863
0.08736684852183632
-0.03420848508383267
-0.012296211907385411
0.05952070985119701
0.04515032137813069
-0.07279896155991619
0.058565990948838145
0.08767895033264468
-0.02490708942642116
0.05838174046365351
0.0341837167538755
-0.04171892708557637
-0.06405810776434243
0.021100737285247223
0.05621815767694162
-0.01690088156387001
-0.058230091856432575
-0.10764164522605935
0.007016334476391651
-0.03694805333457242
-0.04093974716924297
0.085658642078143
0.038800506710056436
0.03476188561537482
-0.00244177055144902
0.026967486859410802
0.015733852609659607
-0.016996590482028368
-0.0008526534343122074
0.06162560439705897
0.017827917730353436
0.12040410096228303
0.0647850229931779
-0.0031094880999452
0.011033471161267365
0.0011937116184871296
0.07101538917608445
-0.05791257819058844
-0.005929608694796042
0.035822301651904004
0.02752315846260189
0.07537159497330449
-0.019769534711251088
-0.07766835235546085
0.02598733750669113
0.010975375010241956
0.023633701302734133
-0.018368812350077268
0.03180057808803584
-0.011266216190244744
0.0346614121767535
-0.006331524684538449
0.07974808917913795
-0.08801906422695382
-0.08827418812382222
0.03329001123823736
-0.07325827113753607
0.008623191202586445
-0.023945376157532196
0.0674826383162023
0.0029544343803718756
-0.025759098815343735
0.08428050276334904
0.03227740704629232
-0.05588785833930396
-0.09579954554678372
0.06626724855504475
0.01675930015681126
0.043228200352587995
0.05877526312178164
0.03006207913889183
0.015422073005844493
-0.005531955476100345
0.021696400689461166
-0.016267548060473758
0.06688385018129185
0.13534897015695713
0.5742577124417141
1.0168163998589834
0.5041983264048372
0.09581758342906123
0.08556645859333588
-0.05900037575434868
-0.09215856781538112
-0.009537622902053563
-0.0051244257829669
0.055513177354645275
0.06973761585059486
-0.006022953912567089
-0.0204050858926796
-0.11983397250543365
0.11856866800399467
0.03163419107939066
0.06689664105249525
0.05550443007465429
-0.08926194740675826
-0.024397196167247268
0.00021072080030978563
-0.008096623175247845
0.04240153141998124
-0.06696030080743624
-0.020793889615680038
0.00011463784761371174
-0.046924633797016724
0.04758465218300917
0.014628371602677666
0.06092152783725509
0.1016760466336562
-0.008765758538294878
0.042623022448882456
-0.09486640801426312
-0.0731142358972499
0.016086582165841003
-0.015535064811742659
0.08066188369510295
0.031058823366660927
-0.07155168612406303
0.01539408050472021
-0.02257548329417136
0.06689575207683539
-0.010232324683396937
-0.016134160061148078
-0.049711597728685206
-0.0573755531222731
-0.0394170110435336
0.04850843542658237
0.08515950072961166
0.08129008714354871
0.02364316081121179
-0.03891628155642132
-0.061472471681716115
0.011782775994562157
-0.05014761350825736
0.10123214894177512
0.03850173048855901
0.00042975490212347045
0.012191045158810832
9.706346918566996e-05
0.05472787935565179
0.016859701354619762
-0.03204685048419328
0.017316355639355272
-0.011314665238664298
-0.019690007348054143
-0.016384988469348816
-0.007832349746291446
-0.14461814025304592
0.027778773470429688
0.033762657368477854
-0.05231000930955703
-0.07808122838077884
0.0725273641839394
0.10781558255205835
-0.004288185594782545
0.05640163130221825
-0.007729074548695758
0.010312541068418342
-0.020090507382304394
0.03773893142938611
0.01593591617508748
0.07049655671368606
-0.016402792891681086
0.022922231938007253
0.040227102289567496
0.02322824305718947
0.017425445383113476
0.07305308116661638
-0.05159901758900846
0.029821867061078013
-0.03531028191976979
-0.04302251989479441
-0.018572220632581318
0.018318307090163737
0.023924069749510404
-0.01144195421941812
0.040972565779854184
0.04485841406915012
0.09161454457341331
-0.02030868442308268
-0.03732705589686825
0.005725142727727552
-0.06927850209937492
0.1110222893854963
-0.01601671922927873
-0.03970238313812291
0.003765611457879982
0.004895098364299203
0.012065015446378896
0.023004215124940327
-0.04814357779246482
0.01768922698509237
-0.014080929278121332
-0.02183979701095451
0.04592983022500269
-0.07972954281975905
0.036275990608701826
0.08949822902519683
0.019696206138931777
0.10073389764145263
0.036868203615501006
-0.013898062319575431
-0.03934153327640885
-0.006089439337746422
0.006963274091710468
-0.014276207619584789
0.037874515544180754
-0.06618100463010551
-0.05476037600257788
0.010797082261537534
-0.03181252987969293
-0.008373715910058217
-0.06323497479964416
-0.015593186133772752
-0.014333132183421067
-0.03161576621303585
0.019444579216750336
-0.05281823504908517
0.07146576459377489
0.014272825291059827
-0.03272966313911288
-0.15075590504212813
0.09840681984359115
0.02705291315638085
0.05495508629303349
0.03272090793760346
0.045148455082617764
0.013798663732879388
0.019389423334296104
0.009457842376936917
0.04186812816160131
0.043925966618638464
0.019510433211247555
0.045128668691711185
0.04853826963873885
-0.028434018722774748
-0.030250394284395674
0.042584417115251384
-0.03396316987669281
0.021712698234992403
-0.04744124783436187
-0.011264432740327646
-0.12956314462658297
-0.029557705223153166
0.00792842760660027
-0.03787284022693002
-0.08525447248515283
-0.039152651090933216
-0.015316796886744583
0.02528940956084272
-0.0022808559605707475
-0.04710090198427135
0.05418092016316677
0.08673991948479483
-0.037022585096273965
0.09004277198315298
-0.013224587946897043
0.023308551004344383
0.06552771769724267
0.06254817189902054
-0.01564480451610482
0.06323489836583149
0.02675423052105041
-0.00677660863278025
-0.03560351263157482
-0.009562916932738778
0.0371113129191794
-0.01909213078976096
0.013734035197412548
-0.025670037943605586
0.04517180780361222
0.05706527477837195
0.613029812915785
1.0120452426836737
0.466893976899922
0.07438316346362261
-0.05089343079172694
0.05183834808524149
0.016197859102504455
0.016353999945525777
0.021132573623287108
-0.035823732901654796
-0.014520238895737614
-0.09192498471379694
0.0973857028062488
-0.067904191462253
-0.029479280745257155
-0.010559999892141451
0.011990910455002744
0.004494926451791072
0.02368999096300233
0.1004104213200737
0.02008132517767981
-0.05396264039355652
0.07739800070094988
0.0724014723459099
0.01600110055373098
0.029019226013461463
-0.034244191573808015
0.051991546631152075
-0.04272968240045026
-0.03346236026988643
0.035798089766520026
0.05017988023070759
-0.04513026418826487
-0.0198563984603749
-0.0177265428609222
0.05310323072474417
-0.0181186140976687
-0.01580844213538615
0.06693965471584815
-0.07105911282885632
-0.030723865013541792
-0.1253021018263786
-0.11348180812308178
-0.030701433477174085
-0.0867743778443238
-0.06181146247699835
-0.10290328269124052
-0.016172222276369667
0.03334885786726518
-0.002798688466535108
0.046524154918923144
-0.06548982706396499
0.08730270573801377
-0.004908572633517124
-0.06175739326398583
-0.005040894320262026
0.018801065151698066
0.03983606786760213
0.06377381007171833
0.004983276106974757
-0.003291970945255117
0.01730218771734834
0.0632362579494372
-0.03664094763820468
-0.042432624460443887
-0.004650076795839064
0.05589950146902215
-0.026368394695845718
0.03687668143567937
0.021006827914342427
-0.021642844723740375
-0.0298658831069792
0.017261003441056293
-0.058354882430102374
0.06769492206579712
0.07567765925088947
-0.008170801039499449
0.09740055129179338
0.012168788568542664
-0.02517445446924195
-0.019161671730839352
-0.009889458095189929
-0.026603431975770604
-0.04128588104395896
0.05452150478951835
-0.010194454158463163
-0.09407152317947229
0.1224942893873216
0.03260946915175016
-0.0935772655906142
-0.07266737588163155
-0.08319643412495006
0.005352093728592062
0.022421265564317422
0.012575894987850729
-0.024949207640744195
-0.03013036049835361
0.008331392495203342
-0.031127665406251462
0.0021280143325056546
0.039039718581487366
-0.03163842661430625
0.06893159481468938
-0.06794706719953608
-0.02244928022186362
0.0002002552260372987
-0.06687864198526067
0.007930097502260411
0.0209107492094463
-0.06336974329580505
-0.03492861925255673
-0.0334140356745651
-0.07811152193009196
0.012094309621498905
-0.01082155911396819
-0.045942000848057905
-0.014627893447749042
-0.0014559412203069442
-0.11242385263389572
-0.0028754009264897592
-0.03892893333531127
-0.08668635773044597
0.034095700576595354
-0.03944812292396496
0.08283326700178058
0.0027360960865505587
0.00068252019095697
0.026372296438531753
0.08932630225679433
-0.02988238249947724
0.059903100715016366
-0.019339140360791218
-0.01606501020968155
-0.006043560318864443
-0.010502998998731819
-0.01543932174960552
-0.07382049313790161
-0.0035697002254966464
-0.01642598990194974
0.05404195451135865
-0.003736523921651717
-0.08864534339798262
-0.020521576820484715
0.02734668134508081
-0.07626819958467451
-0.10418554372065927
0.02490932188826955
0.04709481396513057
0.03515762088674669
0.050992590846140655
-0.051017765065893554
0.01286244877560949
0.01832995446403924
0.05688867209944726
0.049634041642508245
0.0358207449960671
-0.030362325443871685
-0.09120486509866393
-0.10253350731959904
0.026935638552741177
0.0418447674205122
-0.036498466742236495
0.03368772951277347
0.025761530494942245
-0.053907404721813226
0.05631892884965142
0.016243580162884755
-0.10110399676161536
-0.022939974263678168
0.05008593860022853
-0.03811713263869587
0.05216904604380529
0.06028093407728466
-0.03857035076033816
-0.05254759149593501
0.03216112755665864
0.02479562270416062
0.028490507931691174
-0.007115345907866561
0.0713766184240547
0.04487777315810443
-0.021985912370476108
0.03505421213639247
0.007174904502410592
-0.0723563843007655
-0.07564686617079172
-0.001645499772409883
-0.028428407507199313
-0.05187785959132444
-0.020480702874621566
0.028065990737641773
0.015025286157030401
-0.000747168272293455
-0.08170996442309669
-0.0932280368955497
0.06658445488864384
-0.0037102941172981723
0.04064126322462242
0.006547531095414579
-0.037271955611633927
-0.020103419526310763
0.05824141502470548
0.0293136258255539
-0.03874619736865258
0.04480380879815029
-0.03805630555488135
0.01981999611219749
-0.08222956404388643
-0.009687929605352717
0.012714982809416249
-0.028304030091342393
0.13869605319519246
0.4399340834859162
1.0376549559669563
0.5164752297541872
0.061285622558303
-0.08200115972841165
0.07898114539399176
-0.0014569352217228921
-0.02730597681468727
-0.019610088446886078
-0.049021397186987684
0.03260810023463225
0.006397489669220317
-0.07015858809609936
0.00260022015501293
-0.06582118348983146
0.03956346043884172
-0.038170158700252366
0.05823787348539355
0.07371268663960884
-0.019422953785701316
-0.0387272135546928
-0.07398726293471686
-0.09529723935985412
-0.07501815948434432
-0.02705038988751375
-0.12011266936657394
0.036882406670934
0.023788240326135628
0.023913515840252825
0.0585801607787472
-0.05828234056347549
-0.0553599385903662
0.05646179054674249
-0.0282934290212567
0.019634855109124914
-0.1076609150370632
0.05357797898376137
0.017675052931051906
-0.07516844350610985
0.07337498601269406
0.007709004855154993
0.09663420031173357
-0.1031209893201833
0.017767131114815395
-0.030403438633437287
-0.015007853762873181
0.0074278026133511536
-0.09006901097182239
0.1054162634356213
0.08663093765377292
0.01123983807569177
-0.06588460986422334
-0.014398185355014251
0.011645301691281678
-0.034159461877837805
0.04300001225247313
0.007442771877004277
-0.0036605227406956136
0.03900741586256522
-0.08618889869597361
-0.03960225262211636
-0.005624052281224874
-0.037475874327199565
-0.07092143750759286
-0.05834946671554443
-0.00024014767172826222
0.01302098571219313
0.11507588639965755
0.05397342972422216
-0.05518872963981353
0.06181762697314998
0.002554850805069377
-0.007452499410054721
-0.03400531298372844
-0.07939524217013184
0.00045305706370338446
-0.0645010836566198
-0.014648343234151331
0.05793756286767682
0.051478407726823855
-0.012227596011131197
0.050038220033666196
0.013524509900568547
0.07504417931559342
-0.05907773634054551
-0.006179697675281626
-0.024184473922876353
0.020217437747581876
0.01718498478114379
-0.0005455125157361258
0.11188443710271614
-0.057921855428553576
-0.043354472585396354
0.048293845438295686
0.018883079674732663
-0.04302626962054906
0.06513586330074297
0.0021300248046874
0.0029322928514247232
-0.02979647836186546
0.022098128821586266
-0.05919159541388587
-0.03985180033218949
0.04379510585436206
-0.13115460753112598
-0.029932621997374554
0.028316847832342992
0.0722669258899521
0.007841732797471329
0.041075203704145226
0.031359334955570854
-0.03494703219034506
-0.01964954792917835
0.004881857994492311
0.09917228351809002
0.01920934540725923
-0.006599296070135412
-0.06689427951629998
-0.020051749711759298
-0.01923295767719008
0.032917037042765725
-0.029643698693464605
0.004297634109919193
0.009380451185122703
0.009652404979772837
-0.0322147339978146
-0.026642735282489477
0.016039802277736336
-0.029978498796364196
-0.08609338578775412
0.009471574392300928
-0.09786568280445762
-0.008007144662095034
-0.053488568919549444
-0.014289934292793544
0.08532981969796986
0.030458239165152674
-0.029193236411117086
-0.06725009545650389
-0.09480889895421808
-0.06815700716071123
-0.046150331552829306
-0.061629615993292614
0.020125428781551057
-0.005325857691455862
0.07835188857972017
-0.05405648384465749
-0.01854190982740431
-0.08819433430397845
0.0020209604517362335
-0.09598600307809461
-0.05754677911541019
-0.00440151694968441
-0.15197751096269324
-0.03584171094517188
-0.026475881791675857
0.04137976427332905
0.02620379477648383
-0.003368308176407093
-0.04040090176523861
-0.01495722912455745
0.03301873118509723
0.013901917211286164
0.0680716194981562
-0.0024373981881888954
0.009043656555021052
-0.05885783773891721
-0.014501636921258275
0.006394785031140692
-0.006029125597487269
0.08647625807184615
-0.06654825175579598
-0.01924661592435994
0.07861490436809739
0.03460772733162839
0.008482336630274787
-0.06444228754500718
0.008587973588204336
-0.011928808172555237
0.05393085086762153
0.004748750828172684
0.07812790730721815
0.09873911268052009
0.015567626958249729
0.01988927325432119
-0.007291441001272768
-0.0801427572427734
-0.07828163250633213
0.04595091351301218
0.06995311189436257
-0.02765486567958232
-0.014950814255867665
-0.014138785473643051
-0.04018906478940381
0.11160604324939041
-0.018568442554113575
0.05631869397245112
-0.11278967984663611
0.06064847102847956
0.10433724624743695
0.016404765634565468
0.03632131917910906
0.04941761914103716
0.0280637249597963
-0.008066395289752481
-0.03968854835653113
0.03829687283610421
-0.06033070422570868
0.03420865196108693
-0.05075705539277107
-0.0555980426119925
-0.102856176804896
-0.025483979604740116
0.05337596526047213
0.032736783815499416
-0.022748959950056123
-0.043001924696413694
0.18295682525683668
0.39092923914131467
0.9989683221050618
0.4444355255730389
0.10787536006318994
0.006791761939463301
0.048812257101547185
0.06053632800590522
-0.09701130630050776
-0.037938499779071384
0.0042510347949597516
0.05460944434568944
0.029259723918011845
-0.06107593006039313
0.010720450176356242
0.04102989955844329
-0.0445863245239143
-0.03644442201057696
-0.028133785160323627
-0.035372667499575704
-0.010877573953926795
-0.0006020063273492915
-0.0006019323242492868
0.022937187576813338
-0.016950273921737074
-0.052104375915734205
-0.04718070662843127
0.025004734228245458
-0.03808623968757459
0.01936324935219498
0.023852621073270158
0.05214630770637189
-0.04599365784760259
-0.04177345165097693
0.043356738090260624
-0.09243998723196012
0.030895133564732925
0.05282646502064117
-0.09123720209382391
0.006851424069328308
-0.024882981593954984
0.07466007272743183
0.08532474766445097
0.1215557058765428
0.07448186687129858
0.0731171133951982
0.13255627675266285
0.007345820994670953
0.031567147334388194
0.07911592092371644
-0.004416789720201885
-0.037628348252882776
-0.030364805651588125
-0.015390103230040454
-0.0019316455914542632
-0.03258006517334329
-0.08416865675081907
0.06306227069980773
0.11487327806617054
-0.07202866771086978
-0.060935650329805316
-0.03296255088020816
-0.06238099561088689
-0.02181559872924338
-0.0002483666333378468
0.026096609836456553
-0.01712004522447066
0.07438677481078197
-0.048816821243189285
-0.02881968020998812
0.11692621909973244
0.012305004859950341
0.02327332597332046
-0.04120092846874613
0.009457775673454856
0.0031379036709614306
0.005447244787517214
0.01764227019432027
0.06471908835635237
-0.06297753532587218
0.029564504311003027
0.012607420595356328
0.034714201834991715
0.048617379782129246
-0.010478256355527259
-0.010320985422334028
0.032105527733299874
-0.04049514704521791
-0.00760254543059844
0.005420529950575282
0.05220472008189099
0.00655560109639439
0.009471105695466197
-0.01123657998634817
0.014944081540741212
0.00907229871555796
-0.03243213836781676
0.03138105622328945
-0.06619791339686665
0.004868854621609306
0.08907861503749692
-0.0722076089898033
-0.04875292561283488
0.05999654693578415
0.040715788184449216
-0.049376953600385715
-0.05992171269031056
-0.1119195759867489
-0.08977447980538761
-0.010883051880507422
0.05910764330449752
0.05304697389207565
0.03950223301726129
-0.07094851711847179
0.06958865957353559
0.03155698447887894
-0.07340894062411332
-0.06181894845144059
0.04045920293090227
0.043706505905110285
-0.019738250448342046
-0.024780847149347886
0.024333638503410283
0.00901378302551299
0.03050916674843381
-0.07166535551341997
-0.0007774729436976679
0.017885876380662673
0.009784434817283848
0.0017693935709521406
-0.03710725107367183
0.016785083156182053
-0.08840312221771222
0.011693920055030511
0.07351235351840578
0.010664702195148161
-0.045933630877832476
-0.01636098309486965
-0.04098809563311023
0.010101484071953422
0.0011969911495970705
-0.04676492262155035
0.053952841816188514
-0.015702248703943027
0.02159085396829819
0.07779492644383486
-0.06138462532102751
0.07838752921012238
-0.030538203115743942
0.06639301050177981
0.05977402795027396
-0.03128445583862876
-0.005607267033539254
-0.09384961335080079
-0.017042061306228963
-0.049628602799901
-0.0369740616999051
0.00319896402624099
0.02129135785020074
-0.03161455464760335
0.0017259756214279432
-0.02433967145223252
0.02244000688329327
-0.011637527559983221
-0.05478066835825434
-0.035986377084241086
-0.013601764636870493
0.03178685181676068
0.07573642092242595
-0.031974259854606675
-0.08774772893392906
0.06267101179804124
0.028214694203409607
0.01451620229938474
-0.06624368637615777
-0.0038109849858061866
0.0352119665811466
-0.07064350900707139
0.04587308338650711
0.020694647078858805
0.06128876771004252
0.039867291116959656
-0.11055468463466728
-0.05009747323913724
0.03405680565991014
-0.061185726774852504
-0.038884589638851184
-0.008153946044675505
-0.02507041889190304
-0.09994494489585487
0.022212302047037336
-0.011231358884544912
0.012125334534383518
-0.010118597841059234
-0.013683033271819717
0.46759411354791086
0.9540201346488886
0.5014986550326421
0.13314931604357944
-0.019636897559930366
0.031474598731482666
0.06869153175947644
0.029321877161430983
0.09358429387793837
-0.058840964098588515
0.05340232077617885
-0.023948866898714647
0.015788667739687477
-0.07571667621028443
0.09560588627937733
-0.03593803432932151
0.042152064720362224
0.09023519625908245
-0.001995593781946005
0.0631918783498481
-0.06228705235174592
0.04454657050516112
0.007450602000771928
-0.010876163971262646
-0.03159517673133249
-0.07149488256190238
0.006874084402839218
-0.020707545795868226
0.03145391968073095
0.014679089160276654
0.01637806854421351
0.031219149006231253
-0.05254672689591769
-0.07454937651441933
-0.04777574059597047
-0.015259933326273923
-0.04775423586030462
-0.06225374786810354
-0.07629564334364858
-0.008319665937020573
-0.012656914604811671
-0.0008916969051853022
0.0391858587371908
7.747400033174735e-05
0.026592195518270585
0.03091224472405349
-0.06121616124932844
0.10129186177067775
-0.04237332371078614
-0.0055360424262445515
-0.030000187185269797
-0.006144737828980301
0.06304646923159575
0.056082169432976794
-0.023206927849396413
-0.07084725449416637
0.09469250026600803
0.07221210159704798
-0.11364016232849879
0.009301424642506358
-0.07086407269105148
-0.00965313070354984
0.008757706906062234
0.027348229232231833
-0.08644821081921006
0.07910294611483555
-0.05000306757383315
-0.02662233618773569
0.0084479699440243
-0.02762797873205053
0.024542917374732565
0.01915346190634573
0.026441534420011965
0.014941504141909931
-0.06981548736898036
0.023346998784037887
0.07166304224341968
-0.031471086367053994
-0.0028356699492558695
0.04939259240069233
0.04871868661853553
-0.03604342421111188
-0.043446119764705554
0.00039548791449659973
0.015792617321253307
0.039302347755521855
-0.10440544202072005
-0.011849380092273112
0.0022713149856665132
-0.08303221854990284
0.010252889500693908
-0.03648255434433864
0.0502153877605291
-0.016737426004302107
-0.004921133669686085
-0.06320727469180475
0.06368133123984586
0.046972345948235766
0.0026121992473155295
-0.01251488627687575
0.04446486819890453
0.034714231994567024
-0.03751859904504793
-0.040659498545635275
-0.04447219963872775
-0.00394769525114323
-0.018948327440494503
0.05865261703325156
0.05442291933710119
-0.006121633408387747
0.031959516192006196
0.04950950680700552
0.11519855398262338
0.03906681207937598
0.03132384426322622
-0.11888897149755949
0.05528532076669471
0.0060155347150225615
-0.035288576049028034
-0.039183683023755744
0.01889736451012592
-0.06899926368611912
-0.05235723725668089
0.03907463746933926
0.053355427923983303
0.07371204063722786
-0.054907524355259
-0.03636136147818098
0.009034775325834818
0.04951323344536601
0.021771742237648817
0.01043695255194963
-0.029125715742802594
-0.05741553940809529
-0.07508464936574998
-0.018426407598494007
-0.0352096205018701
-0.02972528197582724
0.0066174598348346355
0.02355872399338718
-0.029213723299960227
0.016130724433332005
0.02644442940185511
-0.026111704595309898
-0.028600682272317657
0.004258607236536604
-0.04919009229057811
0.1312353924085606
0.01494669399578947
-0.05569279062480417
0.022179801403875876
-0.02322895389201074
0.04754571035365837
0.015172317532001678
0.021432058850299716
-0.13543931429813058
0.013945965893273213
0.0785307069037362
0.07806477895394542
0.105353136638668
0.07008665370917061
-0.001991081528999355
0.046923250518967376
-0.0017313554944388136
0.029850882688381392
0.047871942394743856
0.004367045764283717
0.04693460624663433
-0.027427971843404165
0.034191447861980216
0.010649176407213502
-0.024580768464970617
0.04813585336661143
-0.07094596198392893
-0.013690852659146064
0.0004219039812107036
0.07339074988765673
-0.006060094185418287
-0.0058586847550292755
0.05523444065189033
0.006102727582156914
-0.03925539835000125
0.12040163952048673
0.0460401035068395
-0.015931407656788302
-0.006479725586745675
-0.05639359479967503
0.013000235913320708
0.04673193797533254
-0.08997384241871771
0.010484024997697754
-0.07197448392218027
-0.015955234055120456
0.007889737503665683
0.009408492255843975
0.11914542044877355
0.014434040469327112
-0.02815919816729719
-0.04720971659086205
-0.028101212327319637
0.018698159221363846
-0.08804458712529495
-0.0603753540516948
0.014631292633519706
0.0907636297900795
0.5235766593371084
0.9598536011758585
0.4703065004798868
0.1538484321491982
0.03277910683769168
-0.07593916297104197
-0.08761064065889895
-0.051823345734739894
-0.02942193951794322
0.0469086158449379
-0.062337501578427934
0.03687237669961657
-0.018762335487641054
-0.007058773119256206
-0.02193006378436151
0.016661023452801415
0.049512509944620024
-0.03602034752376803
0.055343750113745684
0.042313649233123626
-0.014244663739123878
-0.0325180307526186
0.07012125429823214
-0.013741831047432177
-0.009934974249424473
0.021053735666543238
0.038542381132988614
0.06735051447768754
0.026138341412989197
0.007363630326248926
0.011681782053699592
-0.061893307851377304
-0.01517837379438304
-0.04899133349471555
0.04135970947157925
-0.03248433127700698
0.05692652135296994
-0.023965273404147048
-0.03352539522614985
-0.03694767340580231
-0.07114078178573251
-0.041772284620632955
-0.03694228799372386
0.049366333077754204
-0.014517678286252406
-0.009622229760143207
-0.020284542107651862
0.05176828664642696
0.008613536634148823
-0.045915608321591236
-0.06552874222400741
-0.02590346428321358
0.06054137481566573
-0.007405029732579824
0.05820074332443127
0.08598847119138155
0.09759224104708167
-0.016114663870804312
-0.0422918816446206
0.03906210140160387
-0.05515325191044316
0.0007235368104057669
-0.044871823062911514
-0.021151325673645787
-0.00497315100431234
-0.023138722471273687
0.036942280238561415
0.011937355964975799
-0.04872955479419919
-0.04431925889332977
-0.03246307356048549
0.0647846546698133
0.03656218589286595
-0.09937685243310276
0.015062063128851956
0.12567302962614976
0.015777135007368
-0.003968792320317564
-0.03165296558224543
-0.0498198786482775
0.013221655520654083
-0.10081293648357366
-0.03365249426739133
-0.0015964157242583242
0.05533237609205652
-0.07622484243250809
-0.02194152247470224
0.031241661613289697
-0.009702583642062668
0.06476469539598602
0.02733049044753152
-0.040487877448746
0.0013439850730821573
-0.04041935183142145
-0.00399160011348126
0.008824931923781103
0.03358895710040693
0.010429306935917775
-0.059102104898410404
-0.0982117175023053
0.026068957224850215
-0.10527985528018441
0.008228246977230525
-0.04731143459925555
-0.0018573993592438595
-0.00826709254236005
0.014438593661934344
-0.0005231270870993942
0.03294695945458897
0.01186748446830882
0.054833456221355374
-0.025638963429065055
-0.055022112175334315
0.012227006072435362
-0.005579813949791255
0.01775751646429937
-0.003961739619546543
0.050494609112436854
0.022725122664269654
-0.061517189558902764
-0.021068806976820065
0.007292091275448869
-0.020959059118468886
-0.03149549545208718
0.06321879004364388
0.037100456406655484
-0.03758577978426295
0.044183832446830794
0.03928867355609415
0.029071922410998253
-0.07670215875407742
0.007488442816479993
-0.04954920848751052
-0.010215656522812373
0.05618482724760937
-0.02004657963551009
-0.008041639983529619
-0.0708235609758384
0.0067292932338331975
0.0699250401012405
0.10366916185342281
0.04568028546317522
-0.02117229072026558
0.023401858961508138
-0.023379492006190158
0.008007786899455189
0.025887175781665384
-0.0688827521458905
0.03825310011608027
0.02133386346009363
-0.037357398866205906
-0.09971482971552155
0.010261744476560359
0.03507918122940856
-0.016510795392704718
-0.01622562091765389
0.028053944275110928
-0.031877602077626147
0.03430751033962343
-0.013804730965291518
0.011375688341542851
0.016845684447347447
0.07809814924266702
0.013723477575710739
-0.04533421286167001
-0.026575480457723472
-0.026724151709150414
0.025858372437544516
-0.0029324792966073277
-0.00045900429358209505
0.0594455567629951
0.0439195256252695
-0.01432896166515215
0.08616163688217698
0.11281069790018179
-0.04219457608088232
-0.026631251605106005
-0.054049057418623786
0.0704666407189134
-0.042755412133203274
-0.02501514680811975
0.11972849972747034
0.04763061676759006
-0.013177844170291561
-0.0015375214163349756
-0.08850948136754466
-0.0032319260734654945
0.01153810279551834
-0.053749530111447424
0.011247468444583056
0.10261350237546739
0.0735417627406139
0.07888227153116846
-0.014711802450028962
-0.01945208146532635
0.02924578705761128
-0.026836055850943098
0.03545821308332297
0.0486415553185974
0.10958362475351667
-0.06566159510912842
0.05265991751622249
-0.023975974165611195
0.07593583702866892
0.018425876549807593
0.007441337019765119
0.047979914730532
0.04916748413518564
-0.01834648901057406
0.005412497555690965
-0.02957265667323863
0.007740910940129806
0.1472493987113386
0.5775046525427232
0.9086802152838879
0.5576549252913463
0.138162347774909
-0.058545261304370017
-0.07903780935359613
0.0011159627118108907
-0.0035528185746076567
0.0030265997326660806
0.0768028213715925
-0.0753776229948906
-0.055771306395371936
-0.06825158854621574
0.05848790227407005
0.035348024596577036
0.008202663683961477
-0.025544764935627448
-0.010023069678295957
-0.018970980643904095
0.0313332058051158
0.0959597661008639
-0.05472137068544766
-0.02132417104716169
-0.011408028599758906
-0.12823107933124672
0.04392547219226133
0.004111474462864622
0.01982547695185327
-0.029440853499068272
0.01994820861674988
-0.007089878289135588
0.003574211119122452
0.05506879923597766
0.018390412815618245
-0.07474422933169145
-0.004442659483401713
0.059929257428733444
-0.009890654716530466
0.037926117594947524
0.07711304760211662
0.04392849780371696
0.025478756403480414
0.010936764270747731
-0.01113548574711755
-0.005107374025921158
0.06955643249247077
0.03384170351443568
-0.007598295392409847
-0.013977219880356032
0.004229313972191117
0.016428143485400736
-0.017751432886498685
-0.058040557135615505
0.02671670554009302
-0.020227793093300125
-0.030517821319688016
-0.021827832217393345
-0.032723521805373114
0.03690338527021488
0.04740333283842013
0.03634678541225382
0.011507405125668746
-0.0632779593455703
0.025783627382056574
0.09894249038255423
-0.00926472001621623
-0.08009844378089154
0.03641639396398163
-0.08867812097684304
-0.04751424253666106
-0.01261907885504652
0.05554995776332297
0.008135018382099513
-0.02987495380710588
-0.028942757042234736
-0.054223055855240135
-0.026436673894090337
-0.01065323532951604
0.0032469956472099327
0.0311107563372875
0.009629149044357717
-0.05936639691796108
-0.10119599078051951
-0.03158855181148047
0.10201182212136549
-0.016556157126690247
0.008856317146477699
-0.07025003479372476
-0.028022225550448827
0.03160507866023105
0.026525569849032767
0.0008845710717286008
0.02012876611646912
0.06502890065315863
0.008510591043834904
0.08271583977216057
0.01901042335532916
-0.032079822059926946
-0.03922392772076774
-0.017068018204220017
-0.005764668840558981
0.04876791994832444
0.06371744724697274
-0.011305627923458761
0.02434191451007
0.011261512284233662
-0.008544095848594732
0.02006333663831542
0.029406860053248232
0.10441261484839225
0.08532371362555004
0.06524005123341224
-0.011403660200767954
-0.05428443084831395
0.02300778127552729
-0.08900401250806485
-0.004659568530995475
0.024554135167379445
-0.05192987327893825
0.014931812139023152
0.04231833981650597
-0.003763960179604186
0.003987375953744795
0.03713560503817299
0.08620331273137903
0.011682724288588617
0.03414489702996306
-0.014481065015658108
0.03487176150929199
0.03615576763646769
0.024988973815926872
0.08648314436716037
-0.012931421572208286
0.002091254752623646
0.07182796728946339
-0.014530829481746122
0.04105149051832797
0.0927030368781449
0.04068166934925621
0.02278718996063754
-0.007386768025982775
0.058711732659879515
-0.049726946488923736
-0.0715284475769833
-0.04416175685619496
0.0022991708183284325
-0.05755783771112673
0.11204691855600386
-0.040260909505989734
0.046115712079892957
-0.034554723358680185
-0.0001951726514132286
0.004692542893422056
-0.05327935960787122
0.0011112149328224648
0.07232646664796819
-0.007225009746987471
0.012818413766268272
0.017101671069601004
0.019807923536728556
-0.08752939242759356
0.03953244889187075
0.028296653774837685
0.003610051929821158
0.06874470873784916
0.05543940312606127
0.020871163785652333
-0.022863355391206062
-0.010456411706683778
-0.004391654357326857
0.030793298565141954
-0.00017558897197245149
0.01333088158638967
-0.05879873600185459
0.042486444431123295
0.06138977640322738
-0.017999904788548866
-0.021863456170439468
-0.031842489036724556
0.0953698687333508
0.04101726589169248
-0.001483810387713738
-0.030049519656663266
-0.050924851050569035
0.040235219176931604
-0.013065976125710813
0.022908202846585207
0.06984241188607035
-0.05056166226504381
-0.031456576951585234
0.026300177309875213
-0.010364734155164156
-0.007932074795613862
0.04169311184411117
0.03742178317358307
-0.016976234224535713
-0.026985608607124213
-0.0031454379129938303
0.056488354042952264
-0.08121429861064922
-0.005373934838010316
0.031683686717977715
-0.030508808949792944
-0.06864363275508675
-0.05342717558843235
0.017623353275414935
-0.004180682544299651
-0.09455886650018669
-0.024592274276453448
0.06386225913533625
-0.0029604549049680883
0.028913491330714032
-0.00462224209202823
0.04072371101468997
0.129469034075982
0.501038914741771
0.9558175881775648
0.522039223177795
0.03094929109569515
0.024766120496860052
0.0438767904881315
-0.024696669215761805
-0.05782250286799437
0.049418265744367106
0.0005420734282902128
-0.008610765574757913
0.009199647461459862
-0.023189916804826866
-0.07774458174995055
-0.02805597135193417
0.0011143471004018703
0.0013015561900054156
-0.087884414351081
-0.013240921956427933
0.08249586118493815
0.002340547189410224
0.04362518207284135
0.02893616910063232
-0.03216971195888759
-0.03074034190940153
0.02005493020562821
-0.027206981146334193
0.057465048131555334
-0.015258753722512439
0.04146831583733518
0.01914833579142075
0.023899736751451697
-0.030566122329742984
0.05411357124515568
0.11677825073296798
-0.04665056706046158
0.047053562717847136
0.0002003847913702137
-0.04019227780216136
-0.05297271251298002
-0.04302852411956454
-0.03649770831813417
-0.05809654467215301
0.055086991442378865
-0.0004474254415139372
0.020649143802118377
-0.0576224726242358
0.06007313663491287
-0.026600866876910934
0.06487289635602342
0.02239706509926365
-0.04778600329340765
0.01828577293671708
-0.0015197564203544049
-0.04850167660826099
-0.05338182240577802
0.0410616359161343
0.060405004735425774
-0.052167922823307004
0.005470394835745107
-0.07380652005007837
0.041935078266316816
0.00388444246846082
-0.0665004645774502
-0.022452163526819224
-0.027223459831369062
-0.042919614490511834
0.047620514149883074
-0.042078456813394866
0.08396716471506019
0.04313823614867181
-0.016458788865477077
0.1143442696987252
-0.01829685583168332
-0.06931155507026628
0.049757435177296
-0.04295531577800653
0.06246296549283038
-0.0692917669595538
-0.04242969685631748
-0.02685012418916063
0.028559513113470204
-0.024110615104090943
-0.027103928925631585
0.033062471599885436
0.05872720465224686
-0.014740683791181965
-0.04980867746883138
0.07265557543990035
-0.007344816558008095
0.020924026996128543
-0.0235951755815979
-0.01923075027272565
-0.023607404923405035
0.04170216162543686
0.05946658485762282
-0.025650529430762622
-0.019570192683793366
0.06149064090226939
0.09494958556706642
0.02851760713170287
0.017399911230823226
0.0963653578202338
0.012393098870962889
0.012489829351316633
-0.023300204243198855
0.03506381473379436
-0.031049704521548645
-0.02095634089879899
-0.01351660110150638
0.02911994599939532
-0.014382155923108493
0.04483847324366662
-0.04804827693667748
-0.01664229203533107
0.005975937391725728
0.00955975300352171
0.03713957343485331
-0.044729446866953654
0.0028800887347366893
-0.047936106821706834
0.03225838033108081
-0.022610658873337335
0.04135269879754322
0.0010926137288296966
0.006203973585477028
0.13285647806799192
0.0505242359878435
0.03450488575613361
0.0007945245869164123
-0.017283576544404197
-0.023415141450573055
0.06979046923518276
-0.029653564922680332
0.028860601409802872
-0.027469930992167033
-0.04243508822937267
-0.019377302413559956
0.03657589980935711
0.05415236655921864
0.012469844266554972
-0.005046116918884786
0.029702301302057633
-0.0070985121738052345
-0.01737539313609324
-0.043130108202528106
0.05609350255395058
-0.02467117800752308
-0.046176649381133035
-0.008977959899160781
0.04575846704917491
0.03798636064031424
-0.007631632373491207
-0.020680826276636918
0.11256068064952528
-0.036365669727197694
0.002555738859859087
-0.030545234904942577
0.045271927354045484
0.046483338832122946
-0.049597992596353925
0.012649410892004515
-0.11538342719735323
0.008026661944176113
-0.1358037065100762
0.018467897828214425
-0.013329192401383576
-0.06859089163672417
0.02837908990307932
0.003853794772412501
-0.04438139690702785
0.0376258189182761
-0.0027735468126825254
0.021329312550834596
-0.015052147428954103
-0.006945241448201431
0.07877563296474205
-0.027827767975816764
0.014975259019917607
0.01542333846584344
-0.057215697088264475
0.015949664739102302
-0.07935684841952358
0.1020672273000223
0.07123431185708942
-0.0978048972253297
0.05657423691343219
0.004708344628933044
-0.07357389272925623
-0.08937381684335054
-0.001922383448276544
0.08295806939109213
0.11827151475908929
0.014468576071070903
-0.04998214009614313
0.0922613149977587
0.05355995750922035
0.48317155055817707
1.0341051966324488
0.5660198461177032
0.04298684443333724
-0.001009033393856463
0.032658847749548664
-0.1205087841670626
-0.09267311473463764
-0.08203853748692441
0.013195489397642118
0.0298936047586979
0.0603395815876751
0.016505588722266915
0.11821413080535977
0.03165725485598119
0.06709131552972798
0.04781185121053665
0.013700582559990349
0.08049037345656572
0.033474392293591934
-0.029263069450968057
0.009904509581226881
-0.01612966264657353
-0.038667559954422774
-0.0341884021925451
0.031380167305714045
-0.06901764938030473
0.013746021284024365
-0.025666984220526913
-0.05015976234352998
-0.0045008507428604475
0.007236740251079864
0.10199282241652625
-0.051452314523164004
0.015360132195855851
0.023178627037905478
-0.004831828958970015
0.0719694815536762
0.012670994240947617
0.04393068244742978
-0.03150799789999081
-0.0621173135799452
-0.009465265930522526
-0.010210838825888732
-0.01770535884535963
0.014087718443045459
-0.02305503219102361
-0.02179989330653989
0.0724993127531445
-0.04834130248583747
0.06675040590386183
0.04272971613067523
0.05701736359084389
0.05700723314540728
-0.005663003944177959
-0.03402585454791766
-0.015519754929125901
-0.0003259587762224454
-0.05855285731243243
0.020418054860190216
-0.0206775696228271
0.00907980488203095
-0.009606329750907949
0.04626256297945977
0.026808521184496982
-0.030665356839836563
0.00430203631312933
-0.10860630770356561
-0.022282565092562556
0.013576948101903958
-0.048006551887462015
0.03812762784194799
-0.06487080479425589
0.015340986910044317
-0.007672406539370718
0.05456822762192255
-0.02784859604744121
-0.008945664518162937
0.0664512927239586
0.06713379407495942
-0.09516396669701763
-0.07384961482352716
0.07013840455007911
0.05828373334056069
0.04058217784319476
-0.005299391215808286
-0.0011723345962451172
-0.07330714094046753
-0.021674439392368447
0.044710517204027064
-0.005696398479037644
0.046166236512969354
0.052648307471494654
0.04793667197523512
0.022568697289165114
-0.013473169190900787
0.011866217323867688
-0.04945475865073241
-0.08132738237242663
0.010023449993656917
-0.029731780271465807
-0.034345068154469936
-0.008126461517892416
0.04393447812606236
0.0584246493995193
-0.04663760115035259
0.09817019984777303
0.020367931981263035
0.027615120683314554
-0.049084534206361545
-0.002503224158876165
-0.004956758421155231
-0.0877962753190323
-0.0019470708172385585
0.03999963684417769
-0.026442748818798226
-0.0376537094241203
0.05313817145596931
0.009873017379114007
-0.00326062553142966
0.008344890599044474
0.02861392631061123
0.043563953134336426
0.05007487231267408
0.021461939092322767
0.06486858529183903
-0.09107895994998626
0.054686036196257996
-0.010160035529153698
-0.05772410780142452
0.052779806432339794
0.002427249373872337
0.04690887093094336
-0.012051130880561468
0.018372689201189462
-0.007539599856450362
0.0015474507603528613
-0.028164410030371612
-0.0588938556190221
-0.05110811903333221
0.011722398436560305
-0.027197148487080394
0.02744373276145993
-0.006566846068695735
-0.023526359330499444
0.08750908825216255
-0.030389956807596458
0.00891379011762752
0.08702171705081135
0.04668655553897232
0.015809542531404066
-0.0341301447172515
-0.10171689475422858
-0.12971187534414638
-0.019349032440688446
0.0861873248798026
-0.03847562143171571
-0.05067097715596467
-0.011931592642848035
0.006629092634210034
0.013969263884393502
0.05791820785921406
-0.0437767941740794
0.06356545511901238
0.03256249600700264
-0.029641932065935746
-0.04579800059610258
-0.06620761138765065
0.05827156569380937
-0.015417713629503255
-0.015578486940291947
0.012166605584382758
-0.05553041167394013
0.07602485680317306
0.01648126461279041
0.015072407541571875
-0.004709398715268471
-0.06858528731331984
0.05298165975675382
0.11347785204411354
-0.04248484869152954
-0.0463541338069757
-0.042589658408928616
-0.036547314703721655
0.07304731920394886
-0.05076426334400085
0.11788105129520812
0.09359948653818206
0.040358296196316965
0.02990247657037026
0.04410593421393946
-0.026766420797978557
-0.057022771944134826
0.006664348728464083
-0.0672005858268817
-0.0365305350018822
0.0393644580540515
0.02113860977034378
0.0708516353232796
-0.014015441766195659
0.0889760915459093
-0.032519605608290474
0.04602497820922388
0.008729917392661712
0.05568191790686531
-0.03602359598318573
0.04481139400962432
0.024326771789419905
-0.04217332614160074
0.1137766023196568
-0.005329230610336987
0.04339180615207001
0.03189882112399953
-0.060205017962046393
0.05009807512661346
-0.05844650717182573
-0.019789764440818897
0.018120633893446515
0.0037957400984721303
0.03251886774368353
-0.11532887939707048
-0.07004727324108902
0.035104432115698976
-0.007196068649370945
0.1193587691849368
0.5229857250787809
0.9524681967250644
0.43684120562332734
0.1405911454503993
-0.033290386849675
0.013488362504595636
-0.0030199170627296964
-0.05368459693698402
-0.022058790130388237
0.05393531240838467
0.012524940105810723
-0.013315094679909809
0.023545083158295094
0.07247473964953957
0.0026627052574106492
0.10967600769465158
0.02011959292487355
-0.010879995895887121
0.022479436357999347
0.11714854234453437
0.07265404999926643
-0.06681999526983522
-0.07125135688676536
-0.010294819254143594
0.11419744325970099
0.011730725170028863
-0.032317201369034876
0.10532716806444874
0.053604436700612317
-0.012611117536463197
-0.027157743679347958
0.05259148736359973
-0.045504970812113105
-0.023002720183032538
0.008971580321219563
-0.02238158873049953
-0.04326387459232081
0.020331080207562587
0.009667553993562485
0.013640707622758631
-0.0984225186078013
0.05710452905238636
-0.09403810788879315
0.016459131189020357
0.1151334506806036
0.04643565864958904
-0.013569114499797103
-0.024672386008280422
-0.0046700154978381375
0.05865570755187271
0.03132642231094925
0.002308349169760323
0.05234818884375994
-0.06412142889014476
-0.02886704635022312
-0.02448659268738079
0.056449756083791824
0.013844863675013362
0.12407745247924669
0.04185212910457223
-0.03444435236887699
0.0486509434039577
-0.03417509378477483
-0.02056606173801831
-0.003958979191349655
0.016545704015823486
0.01108204064087219
0.01092338290844085
-0.04872663588093623
-0.00016004279295183575
0.015595371877535609
0.04320834902018253
-0.02331971804298469
-0.13755096452175541
0.05607116978778011
0.02840055759009416
-0.06663128956159202
-0.0738109722765481
0.03308828851861458
-0.015121376182821234
-0.07103351414054994
-0.053214212474091076
-0.007043490962698841
-0.03791182757322844
-0.024996551575697086
0.0038502806658971996
0.05229946891664278
0.028807633325468963
0.011252265363959736
0.07070027361369273
-0.046971081222180286
-0.0029604948227329505
-0.030157146025140903
-0.006629938635294541
-0.0022622429163889897
-0.0320418192844496
-0.018704635272508666
0.03359382718741786
-0.0054681376096359065
-0.14506157817722945
0.03486826480237695
0.027246244613930673
-0.06377454341288136
0.07599345618340439
-0.012435278922133397
0.05059300555854676
0.0021099575699023575
-0.024302044395120598
0.019377724152948802
-0.026132345643301885
-0.007685720488279342
-0.07859018803642871
-0.015207322275181734
-0.061697532912947675
-0.00031810134363299364
0.025151307242696277
0.0026524629430236847
0.046403886494553695
0.09889968366109353
-0.005528936800790023
0.0038136635849184706
-0.0327668501296617
-0.0945586418152113
0.006764860721752562
0.03411068709939066
0.0008782393514409931
-0.04092212900139475
-0.04840623568292293
-0.06320561539143175
-0.005356036524067121
-0.05009149656183706
0.05789341321620535
0.03780397397354556
0.05241270746180148
0.06380001164585183
-0.018922547362178875
0.04167853713492206
-0.012870097330586586
-0.01227122098723646
-0.010087965319051269
-0.04106636500450614
-0.006993676189578264
-0.006254563979122591
0.03355427652910669
-0.011008449674287588
-0.027125279885558948
0.034521108159504287
-0.04521638489024951
-0.006634865099067605
0.03303367485718517
0.04123592765364679
0.06578906803103915
0.01999618818178038
0.005754639761938862
0.07959277998041404
-0.0415819815954115
0.03924904821018044
0.006428539628997142
-0.10764640888058073
0.07990196137561065
-0.04045498499129807
0.1424370671567278
0.007678995485337334
-0.047678103854570476
0.04009718349745665
-0.01933887495340367
0.0032571105556117213
0.027808782966902052
0.00537921853839411
0.000676485565744982
-0.024947795529440764
-0.10772457186346635
0.019376358671981578
0.028298148219516768
0.10283467830486935
0.04169355970328228
-0.05094350804264013
-0.1023532665886537
-0.11662391094981817
0.0024207763751696253
0.03122829078559082
0.02137010270616334
0.01655789603689973
0.06934408631213886
0.01954831623742789
-0.04692291359270942
-0.02809666497950679
0.023029394757454795
0.010565977592623337
-0.002043973848814018
-0.023284900136062277
-0.04500678382882641
0.08421443781824378
-0.04608775855549097
-0.029293766866981694
0.0027061467042833465
0.018391120033368177
0.01205411554776812
-0.0800825622306857
0.01881658531939747
0.15612059534325268
0.5137271150216878
1.1035468132487596
0.5714427342369897
0.08358336655181711
-0.02591074119937672
-0.05034072549395039
0.0026702095947311127
0.017819291380070556
0.059532152012212014
-0.0002528748163328248
-0.037660109041529805
0.056724525436570666
-0.05789691900879245
0.023180511413766
0.011291579779196816
0.0062180009828371454
-0.013173659703593238
0.06078736897769589
0.01762864351387352
0.022224371636604366
0.03546610929318946
-0.06970043626330158
-0.05202826036522728
-0.038142683370863247
0.0042717029700763106
-0.04139669844874029
-0.03878831326096803
-0.010128773202030714
0.04904991704278055
0.04801528196182597
0.032372265591477045
0.02946264011332558
0.00020559328177099164
0.01396045682395098
0.0014919150436510595
0.006452638030044017
0.012332621876640488
-0.014364891334094963
-0.09798083375312466
0.03608650478439734
0.005701295463032022
-0.07959503751027935
0.03645866583356596
0.018543317746173762
-0.0756110859600756
0.08804702291487404
-0.0026535878746017805
0.11531790090939505
0.057781315419680984
0.08059307341608005
0.002708122816011566
0.010604250703206714
0.033157867956923805
0.01614343984727856
0.03389626174944468
-0.0035364635299174186
-0.0857860027967486
-0.02181783823825678
0.023217201195660064
0.019167260871861824
0.10001500495195668
-0.01751045871530434
0.019840812167457117
0.03503468588990814
0.024286194019333317
-0.03936036314960751
0.022134038641455103
-0.049099835924171775
-0.0217353592984515
-0.008157263493460938
-0.008869625162311113
-0.07672910833600458
-0.0018672128866980082
0.006584056532706379
0.011673398482868474
-0.012681334978771492
0.09874479964594561
0.00918088190350668
-0.021367127907313353
0.015710997865753744
-0.031804646202530505
0.048217207318588085
0.025611671052425122
0.08079654632679048
0.0499434571047417
0.07505635478855387
-0.1082724303611598
-0.051107205983378416
0.035230552586332106
-0.028940880028779273
0.07672085079832205
-0.011964186557698212
0.056326960234179914
0.024324238420370882
-0.004330212811772508
-0.034838145977459344
0.016300654617975325
-0.008536292855469607
-0.03991297537382513
-0.07085495734261851
0.004775804496925094
0.04958106311744112
0.01461014031651496
0.036142232455015876
-0.006136532474229557
-0.039597805119540454
0.03782265074170691
-0.011685021054903082
0.0025519101031452056
0.03688059187145494
0.037749507479662686
0.005161306010013899
0.043974723274902636
0.026935312067808765
0.02796266569709477
0.06761927575876041
0.029521901871090606
0.09162460142476508
-0.06730112316613217
-0.04533911521811005
-0.023997232049561584
-0.053263984064531804
0.09067303242816345
0.07965082852163609
0.0372243316656248
0.01799474989473603
-0.05150179120486092
0.023762159260322647
0.007120080342963731
0.04294933972759747
-0.021995918417240874
0.028860266228656607
0.050789376754208984
0.04601162144968715
0.007839365766029109
0.06832655080096973
-0.04344045109883368
0.013970987408989863
0.02891596939637386
-2.565215931986055e-05
0.03812821143524145
0.05180860731709333
-0.08942071986926642
0.07746442946038193
-0.025839287813815223
0.05897802548142975
-0.033128480838853704
0.02494599584540044
0.02637655205706878
-0.00749035741592483
-0.022163712866122467
0.14511159424605363
-0.02487255038609851
0.07559759001437005
0.14408737069221283
-0.016583469321067856
-0.07864592590670452
0.0008688739752739428
-0.02250914476869816
0.034675980267749644
-0.022012102518975275
-0.009045924685201824
-0.0017581785417865499
-0.05920440202082327
-0.009190310158994497
-0.0032085649945674207
-0.03421941289004121
0.017871627233561536
0.05777248784298135
-0.011431012940485898
-0.00048769796115475045
-0.012431399563439145
0.09011810360892675
-0.03081187692065747
-0.03282906393112062
-0.02633361432232409
0.06430108794793665
0.06859979711363584
-0.041147020480510665
0.04093520947901508
-0.018921264850474635
-0.06773558028186115
-0.06780559450414886
-0.006831081760281018
0.04316329969334235
0.0021701525223240814
0.007818015417256893
-0.08788512115792212
-0.016307808715860208
-0.011663115654163976
-0.018150647964387513
-0.04879042494478769
0.0974394948079158
0.030651732281700844
0.04394518346738192
0.006763276533496916
0.06871502025862751
-0.04521234496763879
0.04487967879863401
-0.05724009632790894
0.004838725241670272
0.002512001618943339
0.007108108598286989
0.0027689042870878734
-0.10677665485449489
-0.018112355886766376
-0.0016079408005726594
-0.022980494453574335
-0.0761518551526764
0.08435445930882221
0.5329713893076379
1.0769750182804187
0.4946302518522887
0.09003641460990992
-0.03712375582423805
0.07916972131040861
-0.03475406199544225
-0.015325281891822452
0.02379958766441794
0.048846547626980034
-0.024606453623315497
-0.008915701964905645
-0.010769199836612611
-0.06696531236236188
0.022530240177185926
-0.029752744829049122
-0.02144006775371649
0.017041759381102153
0.004784272921241382
0.08868388651766809
0.08854090632243612
0.07288686821047724
0.10069075533585661
0.08051203231429266
-0.08207843487513239
0.027664024708198322
0.015991717619729378
0.01377400190876081
-0.023988793732493734
-0.08738445459448768
-0.027463731950365722
-0.03370227362490782
0.03479067851274601
-0.014195074122044755
0.062096110901996265
0.08907463253220403
-0.04107239995222932
-0.05283755861617909
0.02450569609569095
0.03033037006374009
0.005548569364700876
-0.05797532439785555
0.016897011217755373
-0.010748361297690688
0.03493396117737806
-0.011281072127516542
0.04149869466101094
0.0417207894307233
-0.02915991358908355
0.03708001089729193
0.026267340685169945
-0.00834191384695723
0.05982294302891489
-0.06376573810698334
-0.021586547548274833
0.058277894992588765
0.009088195699388837
-0.006815399533510933
-0.013539345076832921
-0.03978020509166354
0.0691276112926744
0.009203261011569609
0.0017373547349524552
0.05508473550349291
0.05579799821155937
0.011574605782167048
0.12348048172067538
-0.06891961042434806
0.08286765091222077
0.024316255489744847
0.03811113913253366
-0.061353973075130776
-0.04968864458491302
-0.005125461421958656
0.016739729618626003
0.01628724515037124
-0.007911730439690214
-0.03155345907996804
0.006782884605511683
-0.09056277766017513
0.10740296988481235
-0.007692626314957604
-0.0395776249118113
-0.035910234529903655
-0.05602626629354121
0.052021015914713246
0.02584132755052887
-0.006059105123736267
-0.007189768706017889
-0.019951255273124337
-0.10126683155941939
0.039064755361337355
0.00028635082701922946
0.029921091722108356
0.04535099106409821
0.05248219715877908
0.007599662401161109
0.006997773752303223
0.05596555501525187
-0.005193041012742678
0.06587357128391146
0.05432781777996518
-0.026648521309415814
-0.034161408130343185
-0.05574621654312237
0.044637788904296816
-0.13402141776597007
-0.13302380835497626
0.018802215900859176
-0.07520520570102139
-0.05251202925822518
0.009024541496113486
-0.07580324656814126
-0.06716579682048861
0.0791751602666877
0.019716244406717192
0.04663818154014227
-0.029749363904292777
0.08601431213322817
-0.15392810093410914
-0.08056492217531525
-0.08620117232824226
-0.045883811188080145
0.05891226412896471
0.0981349208113632
0.00709126132306373
0.027973407499145942
-0.12050381951684348
0.025516425079090823
-0.03320488491506795
-0.05413997495494982
-0.021502922871898433
-0.00857521036377936
0.06433295545852984
-0.07928778417426183
-0.05185538999505497
0.060238829785133986
-0.06246737184614031
-0.09371697600232516
0.11772596822892789
-0.05624341898197528
-0.0083200450299074
-0.011151574129551983
0.0691539291602226
0.00397510117149919
0.015820531367360224
0.03704444802126487
0.04209065581694317
0.04673911148923684
0.0684080306995299
-0.034086611013990846
-0.047824594936362604
-0.023545700960906912
-0.0379671783628656
0.03983085062259134
-0.10308798668343154
0.06515587798044074
0.023656965303573283
-0.08342000874538658
0.0017280417036374966
0.01669804277857481
0.04449284473358368
-0.0026387505753325507
-5.158685948341375e-05
-0.006197500289750063
0.05678957269133016
0.09435238450384753
0.014946865657534067
-0.029444050335065326
0.019119156412470403
0.09403727780662219
0.0004467487500416503
-0.035255915564532274
0.08009956995484666
0.011697663210166806
0.005162816404847784
-0.07397413605051106
0.005821458875604241
0.04371553042714688
-0.024932372137252037
-0.01153102299660123
0.0020640297606463907
0.0036502827497618805
0.010221788782405745
0.08748633157476084
-0.023632521655234936
-0.03293961916462596
-0.04062654366161604
-0.016069693663346526
-0.054312528456088006
-0.011101117753177344
0.040325296089856626
0.05050701582079541
-0.05257888305465937
-0.018573169177845125
0.02683975934994952
-0.030090676656768973
0.047468253179554554
-0.008754465774575337
-0.08179918224596534
0.01857450841808472
0.039200150734009696
0.05648205100223548
0.474262676024395
0.9691600737782964
0.5154470940718784
0.05937962809903871
-0.008781352836641106
-0.05310961299361022
-0.010686160474664409
-0.0026341113915855194
-0.02451534058319988
-0.08713688804966035
0.09724278898476169
0.019022204960223766
-0.03129409164463308
0.017557554053497564
0.039696899609752034
0.023565831644038054
0.035546777923972574
0.05183188257445658
-0.04060762619766919
-0.01610677554014361
0.003939732848839852
0.020180220769585748
0.015583206042976729
-0.10554172375946387
0.14214516083556789
0.08348207324566985
-0.027745238161849525
0.03367669231238494
-0.03498128931892954
-0.051047308539997685
-0.04444525846399002
-0.023780022672603804
0.022579069414604587
0.025105754898704126
-0.010569023332402576
-0.08033484783160877
0.022169805282628595
0.0697295217737539
-0.011007424422580145
-0.0032797766012918183
0.1047484304173135
0.043671786486174737
-0.04693837651463704
-0.0555861156829455
-0.061383380664910205
0.018970976229029567
0.08015321209058357
0.02862278015131924
-0.048058532571259
0.0427881698369626
-0.039742122381324914
0.12482641248175841
-0.02796953274014797
-0.05338739504983747
0.015263429411460258
0.04449639221926511
0.0182378546959133
0.016300045002299222
0.03381876745965547
0.004231629293120539
0.020193431130711342
0.04001201432042851
-0.0612339822513884
-0.012385220458458317
0.035903716249655236
-0.07591360728137703
0.017489278815779004
-0.02419403333583456
-0.012506316140877174
0.001529312029070989
-0.07870565410736688
-0.028285467556308952
0.06567185390904745
-0.0980989011193399
0.08062754534732036
-0.028701901341715665
-0.029144579016285817
0.004835141931802363
0.072038671290315
-0.06719184930476255
-0.026571798002507353
0.03677566664568954
0.038694880954983656
0.09033005580544119
-0.05426977421366966
-0.058969185780290916
0.041596915268450524
-0.03297259016814699
0.022238651315880098
0.035580485838661975
-0.08192021186727172
0.09185332088123459
0.017768114276695116
-0.02912275257443979
0.005360509766695292
0.010158689737180225
0.012715776362044327
0.043859862682790324
-0.028325634142485963
0.008315321327553433
-0.015234568488868342
0.017512183640115385
0.008058745484489994
-0.10150232145159566
-0.03306277049503469
-0.09010822215730552
0.08891252654405658
0.04620809947863766
-0.06288198642226622
0.041988070298334644
-0.022614777644491182
0.008779198577256444
-0.10133989155332797
0.02062104813125253
0.020821103153051412
-0.08973175463202686
0.06433422416659687
0.057865798201668456
0.009587853436194168
-0.019691135528374107
-0.014668340928852566
0.08232246418485566
0.09120507400397417
-0.02759645483196337
-0.08709865623319828
-0.006928129216364345
0.06402837768590632
-0.03276740688596184
-0.051911068023978525
0.09471761831160803
-0.07291427536964318
0.07031994827489532
0.0018211441290772732
-0.003292148296286086
0.021999417078493413
-0.00463591451570812
-0.003657121463723874
-0.04366209362790392
-0.0181157469982149
0.03415049037286234
-0.05976892815755852
0.04365857574093913
-0.009169120195512845
-0.05992761635343248
-0.006253843939121866
0.021032468438543773
-0.039355429231525046
0.0705433070333789
0.0454425549980818
0.03174240445909699
-0.012332152263588258
0.042190776843303496
0.05769510693721533
-0.0302199570760476
-0.00042646913095240567
-0.008060729474487934
-0.010206133688340363
0.07014784790088295
0.05968286991831186
0.05138882578846071
0.02999983659953667
0.002477701271999702
-0.008218604469958314
0.022336721220713424
-0.07811729549704421
0.044721469794963865
0.04834489770067896
-0.0460075331304954
-0.06744082958964175
0.027420357012119364
-0.07655262247951837
0.015045384650246638
-0.0384009583961586
-0.07077191212159233
0.036377898303152634
0.07047116881435365
-0.01951086018433646
0.041809374177965715
-0.03810082263217279
0.044740050224767416
-0.024192456539513713
0.07164334595441312
-0.11230262810795762
-0.025991603216890043
-0.018038304185465457
-0.07848694674574107
0.035582454149182874
-0.0021465352032624487
0.03892384096043183
-0.03693935738622238
-0.05491765943508531
-0.027617761364266635
-0.06021567878328981
-0.016525305183172856
0.067079838281127
0.013663700924752593
0.03324249730729093
-0.022213370451309913
-0.04685177819131309
0.00946893755327085
0.002601346693578112
0.05444160298453439
0.06319079767046464
0.047686455236127384
0.10451618114594348
0.0031045676735238937
0.031867723210709006
0.061056731998905725
0.14174504835452467
0.5500495882076679
1.0035770128137402
0.49673860717619234
0.08513972307697218
-0.009777183890337368
0.0023705677901369637
-0.0334182157621545
-0.055813331555178106
-0.057542126924542
0.06411753805881097
-0.021233588464331446
0.03011745548359786
-0.007377866515911983
0.06633675348593013
-0.06270747596376151
-0.008818414197632974
-0.025804009732149247
-0.00035799382892734346
0.04559509137516273
-0.005054904939807363
-0.030098683933127923
-0.00013374565236599648
-0.015801747630861857
0.02322821154606886
-0.12759403980561176
-0.017389307509217744
0.0028357353233554126
0.03927270768627497
0.04496879464956106
-0.03366022872063815
-0.021099765028900777
-0.08422339263669032
0.005652163543529189
0.12441483273600816
0.009542271480705031
-0.03456074578991235
0.008560187411777108
-0.10238047078018989
0.037641303908250594
0.06566972575873394
-0.01059712156474124
-0.04156836767509225
-0.021747706719254925
-0.018732200859748662
0.02557188162527145
0.013315857984284885
-0.004648101451823978
6.017610744101884e-05
-0.032513823171711906
0.03059327331115489
0.0006961826929009962
-0.07814767085122888
0.03660184443824231
-0.014816794401974654
-0.020457955005395358
0.09089862893637145
0.020880159651494548
0.03343491347724946
-0.029502988809534076
-0.029437320901381958
0.0713338605971209
0.1236021015352935
0.04724124232257617
-0.12686979243796298
-0.037380394038392675
-0.0030966331940679723
-0.007712793646646951
-0.007839957849237592
-0.07121150395833882
0.09613019681390331
0.02806727089116431
-0.038169095163526776
-0.029004319538184317
0.030315096865890307
-0.012688234989587472
0.006477043914363382
0.02128137996473871
-0.025592629320500243
0.08648224238597413
-0.11749545496115171
-0.03878924605400623
0.040746955121628
-0.0342678777648935
-0.008060256961283534
0.062272265436104285
0.02384541854428679
0.006046196525074484
0.058520490859034484
-0.028585964415442214
0.021703650628542653
0.025684599761290946
-0.0582138808704189
-0.04262181485178029
-0.08556740241722692
0.013545575376169128
0.0621235769586617
-0.03988895861135829
-0.11771456338508285
-0.002480115817386757
0.05997487006026622
-0.017634737006047365
0.026173076360544174
-0.11072634682993664
0.028539616066730795
0.07647700384899876
0.09246640913900583
0.04972077826541801
0.1276616374219074
0.043483675432688995
-0.004828452165059546
-0.023368899504754372
-0.08210422334029699
-0.03190667732211469
-0.054930650815963294
0.0396394695239357
-0.05862744112523365
-0.05150687601986256
0.04789614726473684
-0.02683563838040967
0.04249090491681867
0.0879266620340034
-0.04633753949985359
0.0156944689599284
0.14592970302169309
0.03303475081569946
0.04679095711020034
-0.006016883774890793
0.009258653671743488
0.039204428406851614
-0.058686006344367186
-0.0670562251419166
0.020145141070907917
-0.01172176964196689
-0.06608293300487249
-0.0773807185457108
0.05175225538142848
-0.0017936569016619973
-0.021246239122221584
-0.0010381021549243047
0.0018448790278873168
-0.010589637355254186
-0.08234034493627863
0.01935202476056572
-0.049318748259681536
-0.02018306450955399
0.022415025954774504
0.03885264673002278
0.01589466370714416
0.00591767499919982
0.0451044825917677
0.021552938815914455
-0.04708180619923663
0.044555627010008925
0.04113922454791096
0.00838114423848365
0.03157919305529274
0.012308526210456087
-0.16351078961685966
-0.019970806996022772
-0.008049864292668718
-0.009383319563372678
-0.024657817709960502
-0.0015019678853225576
0.038387480045284306
0.012317054483349871
-0.008835582987530904
-0.09648388586721757
0.05313130236010874
-0.023619711996085438
0.08653921045981254
-0.04371687197262375
0.03569996387932132
-0.006574843586651705
-0.05887930820184633
0.0470562141098681
-0.08073079560947373
0.008477143701357775
0.006097413199186573
-0.03652095186859931
0.06012435788162793
0.011506125786673212
0.08753535067875862
0.013819568683260303
0.02712603297088219
-0.10673712536801078
0.034671201229163506
0.022610362943280834
-0.02521196622003551
-0.03651830783654392
-0.010989187964924074
0.043176744762321057
-0.0580299104883255
-0.06466746725851849
0.040275418459304546
-0.020299815184265883
-0.007160531645608129
-0.00619715172130508
0.016251411956363735
0.06261503532170183
-0.053156371706880125
0.021483336609670813
-0.0011887415347277398
0.015403398310148503
0.11183496083217632
0.038393564079902354
0.5303836495853509
1.0549913332035243
0.4499431445915226
0.08774338174029296
-0.02584565044014331
0.07036533983407472
0.0001895485775595494
-0.08018118353540227
0.11373982642801579
0.0832949869130646
0.04664574691592813
-0.010588586573202169
-0.05496074174258471
-0.012624275399034268
0.04641519045830201
-0.009568674215765776
-0.027930579864317774
-0.0738639148710163
-0.046056330925385795
-0.06910805261069268
0.005994687179738733
0.040529143615434804
-0.06378271455991352
-0.08327032588219266
0.0003796647110208576
-0.011445350682780894
0.01689969760548427
-0.07498211255519736
0.056755604863002754
0.020872904805620686
0.05656742952379401
-0.02327344848410049
0.05082867127257221
-0.02837486732929048
0.048715855125945506
-0.02665604201373919
-0.09545619032254898
0.04205520557578272
-0.03085700406046901
0.04738216953275483
-0.08126341263224734
-0.08873472610069831
-0.02043663686497055
0.0007018443665989567
-0.08696334470811669
-0.030602538494244304
-0.05732557074557046
0.004597059168203835
0.11138648379306855
-0.02188635477900777
-0.031949281002003366
0.006264186974460191
0.09802579979767262
-0.05555606238096562
0.0021730765034028415
0.12476584931796138
-0.03441736426391397
-0.025697282377131023
0.04646449211618802
0.09019528595801225
0.09695917535881776
-0.0074071924496131175
-0.047135803670740356
-0.031194086460276556
-0.05465926229241759
0.003851514248586454
0.03330968346739437
0.00979310521980718
-0.024618248162360214
0.04729969801381908
0.02668255874755809
0.02415075888693985
0.04003981328762149
0.016025444640132818
-0.005749176983854723
-0.06072426126230412
-0.015098434517604674
-0.03872199480314174
0.088102101215962
0.08309038098552403
0.07177519217542437
-0.020171262809931746
-0.0060462249926146235
-0.032075031294458094
-0.05997516451807015
0.041672600801386225
-0.03675555663256756
-0.013463330527151261
-0.018456241569455113
0.09473106845458236
0.002527504492179578
0.04265681636094608
-0.0176683125992009
-0.03388193100173436
0.0201185794882787
0.051940858342477886
-0.02588171238288996
0.033460453733193146
-0.013440706976387254
-0.08448851376451882
-0.039324145597730766
-0.0014491380945918552
0.012117057952763308
0.03079103246942005
0.07460098611084233
7.572083477758351e-05
-0.0720516815155046
0.010762738335241662
-0.02178795362575336
-0.0527968721896192
0.0026482766315361634
0.034558092530484856
0.030268743596558817
-0.043605832094416506
0.0596476291129999
0.028468350583394454
0.08175668674601072
0.10377587186442426
0.030614111232661053
0.05992957869938144
0.02606144277705462
-0.0771814840559759
-0.11724068305275373
-0.027613357404826178
0.020267644474940262
-0.07462918814812153
-0.00042412887513231467
0.04070183685105798
-0.07876771041404014
0.049457777448940116
0.013174071471969397
-0.0004894028566878322
-0.06318004553807403
0.03432712305589393
0.007881229255035625
-0.10612869894380184
0.010938926856230928
-0.047827720141403185
-0.03501761457254755
0.005052668639021034
0.022695054997258605
0.05319413562897915
-0.04263907858423849
0.0016924499878193475
-0.09293016014895818
0.019616067861204064
-0.019834071552289355
0.02641072092270967
-0.009261571708779821
-0.026895150557363568
-0.01316083929902693
-0.1098374648138389
0.036687200780524426
0.040278557340453935
0.04156583589454594
-0.005362352617621244
0.05707517619694078
-0.03541172138671185
-0.0494478579403472
0.03570179062994322
-0.02771250019465556
0.08226658242109075
0.058842746125825345
0.002126235741401195
-0.05966531401275528
-0.03483949818509257
-0.009414725313229122
0.13235355430655354
0.012036173831279515
0.035358739976545345
-0.04170679220882162
0.0045858112814651745
-0.03843439751495849
-0.029058324137097802
-0.0893700241327007
0.015563919185162579
0.036033169172701746
-0.07401701830045469
-0.05930414803381835
-0.07270501147620648
0.00037904075715182103
-0.0033258130183791168
0.04290344971383296
-0.05780386469744101
-0.018653060143356694
-0.03828890340947975
0.032565596853097005
-0.0009535332074194407
-0.02831843733964111
-0.0399346795838984
0.018109848208171436
0.05491071841893445
0.016860752481376765
-0.017224430786168397
-0.06940986505859069
0.06417462436741855
-0.00023236759214511255
0.036487575931656795
0.03676516396044401
0.050588300313328886
0.07689371701705484
-0.11556905095625376
0.007877834822819346
0.058730067348535364
0.0021962545586600942
0.013552760507601382
0.001970053497319937
-0.009219970980186832
-0.056008544277306366
0.07341600351655489
0.440935974284132
1.0277885308644599
0.5247929788307922
0.09708127621285559
-0.11829943478226929
-0.0179471976886307
-0.05766767883223364
-0.052848094504006196
0.011778406109795338
0.04459448825391032
0.06689658682548644
0.016481238110641297
0.0719356157343932
-0.0651685661984676
-0.04335300155998094
-0.004272743050416018
0.03240914649258015
0.0245539379919468
0.03766859235460362
0.008681870952690766
0.0028804009557969823
0.08200450525372861
0.023033303635540278
0.007350760630306198
0.003281744181376846
-0.03802901192138167
0.037009889845366205
-0.056118206881253796
-0.09003272435783433
0.08782808269462637
0.07366587938472884
0.02233450785050352
0.01787767608929549
-0.01224244406437433
-0.022152123046056196
-0.09131185317881356
-0.05329628468042235
-0.0469781891336576
0.002983314187467725
0.08701809909165419
-0.07682708817547167
0.030426244540477945
0.034692712404740166
-0.08411644655858991
-0.07244785129470453
0.012180932996928717
0.014830427901170083
0.061918968668899246
0.02335488524831114
-0.059868297287027805
0.0004329766297691996
-0.03601415891088929
-0.10313934552209039
0.03609299408056257
0.029308175452575264
-0.008187153635794612
0.08465076979167735
-0.06276867805952156
0.05024971224002971
-0.037112838630055746
0.024048858882928754
0.04809941957656293
-0.04235979940161169
-0.030555597554964866
0.018644342734861645
-0.05200193885432156
0.03134973972552941
0.003832218995375803
0.017588179151215497
-0.03744390987313292
-0.04003381503083453
-0.07019262256657263
0.01361278547036596
-0.06043144202041906
-0.016132547358791955
0.038425060655021825
0.09334228201647049
0.016938331364665726
0.004663868067309984
-0.06697659034413916
-0.023703914333313616
-0.0216119300968005
0.019854305693158027
-0.01645207705351822
0.10346071263177868
0.025045382477840647
0.036743192979411775
0.025043557111757736
-0.04965883847574198
-0.028305728370795414
-0.02421297172910679
0.059524190844171404
0.05019445336351809
0.015969307000937325
0.011605520099391614
0.03370802159316236
-0.07488947039198772
0.00676590893672827
-0.07478135371853172
-0.012387763318319325
0.04513680374008383
-0.047905933307688275
0.06597681901489208
0.036722739517166585
0.0024412933688435167
-0.000504658175641891
-0.04880053604926053
-0.05762756765941157
-0.044520209803546824
-0.028664224084802466
0.017763203308417373
-0.04683609175335715
-0.019901364105279887
0.039847745499569744
-0.06842901356747068
-0.06628402529626382
-0.009683499933587069
0.00406188818735427
-0.00011117153586329847
0.06123151952541947
-0.04400720858486362
-0.0633544564711067
-0.09750566554531502
-0.013817009598036244
0.017499549810616397
0.019995427082592263
-0.009447576223247819
-0.018965885782600646
0.008700239758679947
0.010431006129234761
-0.04961715458750921
0.029561669667590273
0.030162191784207
-0.07884017590379269
-0.024509623932570525
-0.054961494713416784
-0.008465562202228645
-0.033954437963801036
0.00869771904973829
-0.057535118846574584
0.019615100531534348
0.11629193592491545
0.014807361515579619
0.06325079785612188
-0.010295371951639104
-0.05226567023634124
-0.01898274665584702
0.0268806932564846
-0.002093173916156026
-0.01800014576933238
0.036224086501889095
-0.005274725644740524
-0.08120947874334788
0.029178670778346946
0.01060955772679367
0.05552223163834696
0.018720072154791805
-0.03089343685092807
0.015201337394604643
-0.006833787806456911
0.0089108578830648
0.05212643960831101
-0.02042903113708354
-0.014707122267489972
-0.1193808687010858
0.08316080910937727
-0.0006670637211826818
-0.03094745285669316
0.04702412689511795
0.06386434739853117
-0.0767345718642622
-0.02938165800817155
0.01337371813031328
-0.055821161472560055
-0.029347749283859293
-0.0641143770186452
0.0015190552624041011
-0.04962571673924727
0.12252057781446575
0.08557787736285792
-0.055198645263286356
-0.08903569765953184
-0.07395989306851679
-0.024418759583151033
0.008335422982606458
-0.06704779991642931
-0.014861839270185907
-0.01215732853473157
-0.06117036911480355
0.06896676697568231
0.0155457636579911
0.0225593018837691
0.12113593647602657
-0.05489474581571675
0.04599269542499665
0.08345085424876594
0.0757715166413527
0.03233118341394361
-0.08800153629390413
0.016828795757508164
-0.02862194971771885
0.011162024700236733
0.05147561759558078
0.017097297612592845
-0.05670366381610911
-0.06948222691949345
-0.039295922308584065
-0.0049895818675558985
0.06845676488968679
0.013267275754047216
-0.006175531207856311
-0.010235134210031714
-0.009577053987662764
0.14225874777696376
0.4473714320898655
1.0570179152818444
0.5371931654895253
0.08663994391193387
0.13663559824104318
0.05134749472033831
-0.00933577030498554
0.03833734119799808
-0.01532380065093801
-0.03734553361226147
-0.02446181229336526
-0.00033608081421217316
-0.08449335379165607
-0.07025844726625298
0.019887309447377655
-0.01946407112219224
0.09889038231280739
0.03350168279096285
0.02197055075880593
0.023940527655770323
-0.009028804478108525
0.03636100251630933
-0.002629661244191178
0.016790581511045323
-0.011390489887393855
0.05938192147388566
-0.03939286479362
-0.10412852618512998
-0.024401088891251865
0.07630595380124114
0.041761190993736146
0.05913955123425324
0.00683023544893302
0.006926309425488553
-0.030707077992323962
-0.028330112659201517
0.0015524914331736827
0.0010806733144313712
-0.0049618522514395524
0.015040987755486485
-0.021396653755288764
0.020087924892970677
0.06560727601700032
0.10112550187031247
-0.03502778166589199
0.061001473603470774
0.03964815248913296
0.06082819939646883
0.10054831776502521
0.07607285770014846
-0.06144055403228275
0.0041480783052039415
-0.03965180641552993
0.012829111613400541
0.10358296466376543
0.03572725139975828
0.005873314027767869
-0.037065057181344264
-0.015455713019176993
0.056633990225467924
-0.04013712669195399
0.07675444896554628
0.041444424041238374
-0.057542134264145284
0.07375468968454323
-0.06602765914642005
-0.0804655960607045
0.03243971941402589
0.04822915942182261
-0.01496273217700165
-0.03787381399277373
-0.009683544024509418
0.01585876238566723
0.005946116953105143
-0.035221117368016634
-0.0617631452381551
-0.01828835324223501
-0.04966287535848154
0.022173581105396474
0.057581321380943
-0.029032025266441448
0.04639881733008026
0.0798269093652249
-0.035368858461672315
0.01764992172299545
0.0009969137970192667
-0.05641172790639917
4.663498386265161e-05
-0.02223048716866082
-0.027276882450307755
-0.012304659814361907
-0.025941618141801123
0.06618664168225208
-0.10378738641516604
-0.046287056043413294
-0.004047620256246931
-0.04204568804154897
0.03424551662879577
0.014045226919862933
-0.007020326366988467
0.004402026595390562
-0.00266242504105285
-0.052039972780036726
0.03152259529292437
-0.05971837447343678
0.004909945105423501
0.011524466506024312
-0.022419442331387263
-0.027585382696887536
-0.027267777797404122
-0.08271085134199481
0.09024718489057679
0.035027629287741203
0.009130766774314486
-0.035050380449484046
-0.005529561485779806
-0.023112249111817276
0.08211650283836458
-0.09335406773542469
-0.07164465303225237
-0.08061171079396662
0.038546199969120946
-0.035277597038499066
0.02516131662083436
-0.0015709448916264562
0.04955527545937685
0.045229397579861996
0.008738654513051029
0.04526577546658958
-0.055977483866883226
-0.11035156723024282
0.02076692601891142
-0.0030033989019341407
-0.03965740602591932
-0.011772779837301798
-0.08980510108829115
-0.03503489596751528
0.06937469508825286
0.04117802424702174
0.04375929903437561
-0.017261038312376364
0.030740903076632804
0.07402312336473985
0.04993331448247258
0.03777007879119148
-0.12050328182747033
0.03189460319489978
-0.012511013791708745
-0.049262897523756496
0.03203395162994194
0.0035831618023077594
0.023146523065326358
-0.03108662710183467
-0.06986412813526771
0.09854139235174725
-0.056267857099333775
-0.028920473470917776
0.04406555220306147
0.06951596586249219
0.011298870800066384
0.04528856468900567
0.02568781308052756
-0.046391995513862416
-0.05713744428640327
0.050242292456599724
0.03166056914614986
0.13814957617022344
-0.04129540946473428
0.0011739095546982156
0.00550778375069063
-0.069761587466136
-0.026985646300672073
0.025286886171295292
0.024758216181172285
-0.03198623266252903
-0.007640321521554511
0.09776453829283648
-0.001958761711257927
-0.0322395975663369
0.10427698501819285
0.016163284632602366
-0.04277879247380562
0.0524696667909395
-0.05238245292938065
-0.04485507535414732
-0.025770501543966057
-0.0439167248258073
-0.03879485714234705
-0.05529092240699656
0.005102195467980972
-0.06206210447834357
-0.06751033296346497
0.022939148520197076
-0.011183483949412732
8.615297286477504e-05
-0.012954426413403088
0.11089489888010212
0.0009558801568539746
-0.009126834711768821
0.018794028360966258
0.016158739917678754
0.04822575955083397
0.00862422312875149
0.02103978545231977
0.03842130198203014
0.054056536358967504
-0.022620502721248728
-0.07406105840886568
-0.08293283107745415
0.02542176313071695
0.010579071374813004
-0.06615217179809617
0.10000405361466108
0.478252878316476
0.9606818712755727
0.40801219009178463
0.08074869694077197
0.01806822752615071
0.0897724148114602
-0.06765550259015352
-0.022017579120380125
0.08109826377462376
0.04910370726904966
0.04060325017027691
4.2557956921110716e-05
0.04113891416142465
-0.04039347657954989
-0.047986176895626835
-0.07960460461477065
-0.002832687648438436
0.03253453985510071
0.018995985688816282
0.08585421703049556
-0.03789126203361756
0.05475257219623504
0.006741592520366917
0.05193676752814563
-0.0023387569173219202
-0.0009664898323244929
0.012911826162882722
0.0013959844175875666
0.07213405517327232
-0.10751438981957695
-0.03291243803628003
-0.03125194788291529
0.04741604880986421
-0.02428835622139912
-0.002342315192177646
-0.018234578544134777
0.03442902265278389
-0.006273294999416289
0.0430132902671073
0.04926844994173031
0.0976680989840381
0.04338165874705441
0.02412579808144434
0.09117157441063663
0.056770708721503
0.0045630186273943754
-0.014949546095831864
0.060825900662371424
-0.019237539996568603
0.02097537905867559
-0.07810338202003707
-0.008984895958034863
0.07198422270375729
-0.05194464334375807
0.03838883213420244
-0.10866988640480349
0.06327687576563013
-0.039614238555279374
-0.01713149518176844
0.0706453766155799
-0.018833249734098827
0.046806207809973306
0.035205492815946926
0.061574239993504476
0.04917090941537576
-0.005565318853601368
0.05893997616086008
0.012518609632603685
0.011993710955606151
0.08591280502944319
0.01716086779675639
-0.006602827891351533
0.08351076143812974
0.0021463305055084594
-0.0544517453444264
-0.07800160199503879
-0.005929927881492229
-0.023930424698998806
0.05195737385025667
-0.027432576167421476
-0.06424821823468117
0.0003086251936042386
-0.07983707906850168
0.002725749222481633
0.001606555824417082
-0.017415739161052598
-0.06383589194815063
-0.03412721623074726
-0.00898403036148574
-0.06358989098827719
0.01842110874451706
0.026377578091492684
0.004336786600914927
-0.03860333573879306
-0.012376279636987474
0.07420352843803532
0.02906750966669229
-0.008155573466428824
0.0346130473916881
-0.10958846335313706
0.12574502201782278
-0.06069891519627401
0.013689155249852428
-0.04553493475124445
-0.05446932077982735
0.051960057685891715
-0.006252800370003579
0.008365654526708982
0.015341653409710285
0.029981115770606116
0.026210662083605243
0.043557789269295905
-0.0922682070568074
-0.039211488670242885
-0.04529136135321651
0.0525252234386437
0.037840528703968375
0.032938271222106186
-0.04618332038879436
-0.05995579154517777
-0.08315426229427988
0.017235977496869285
-0.07648680869381186
0.03725919154027951
-0.0344366266425294
-0.025866795369715024
-0.014899651573201948
-0.06280066721708205
0.04527105889035345
-0.05663995685674477
-0.013628353541337785
0.05047092867048117
-0.09669938259372257
-0.06777447285270531
-0.02600890498949573
-0.002845239159397099
0.02775836123811595
0.0056865917955304214
0.02252679291781654
0.017784168155704924
0.027044346500195895
-0.06834613005860395
-0.026014046885904897
-0.007712381514579091
0.008808325875547326
-0.015127931007786824
-0.012598468058563683
-0.025096224050558398
-0.0016290913786598299
0.11342098156743674
0.003323744546982966
-0.05614445207800575
0.04784708644997407
-0.08871185580368363
0.013421920497887516
0.0010555296419079826
0.0793709314462228
0.012069964139156843
0.0747851232052754
0.0009176994845783407
0.019859207454966773
-0.030654781437912254
-0.01954409603639604
0.030824000847851914
0.060546489658285275
-0.08798661470338864
0.10379432686075735
0.022605756187976705
-0.016961245054799286
0.023539124088044552
-0.027423888873794752
0.037450369812500967
0.03447247339889215
0.00642427639688857
-0.0454135818845566
0.001283901174808842
0.009644616589996274
0.044927229307571974
-0.027907314773140835
-0.01754478761242371
0.06407528569132798
0.08508951832699796
0.002421695670984653
0.06178353829106273
-0.00013230001211456054
-0.05840494131088084
-0.03138712949217597
-0.034927455978211036
-0.01879214954022228
-0.01764508825253964
0.10614880252480803
-0.03518224866197175
-0.050550139539055905
0.06033813023323834
-0.07960718353537999
0.013675464132420207
-0.0011312283327493974
-0.01799923203747963
-0.04206512745137155
-0.05334290811482503
0.03063983526168968
0.0555665783517184
0.06736335462633225
0.49107018245589246
0.9433560276271679
0.5043035697241796
0.07100877749028314
0.01032040968357971
-0.005501008992763193
-0.06286616300243106
0.0053788472996772665
-0.0031377687288687128
-0.03052489770166208
0.04223500252361548
-0.00519372282693074
0.019792275272799514
0.0884506905580985
0.09447565918760505
-0.062372807078550356
0.03639291312056841
-0.009098881647142338
0.01638848390285545
0.05821380663134221
0.03610770415651069
-0.005764625194685948
0.051069931469127805
-0.02380549665354669
0.01215415323469341
0.03585013442293455
0.03898601196862365
-0.08472008890782352
-0.04059976728818465
-0.038241340708597145
-0.011189398427141327
0.03527817355883236
0.01177034382063921
0.04366432673360268
0.08986918928916901
0.0010454819288430092
0.012262074772069415
0.0653076806061597
-0.0491954711752669
0.023726487251757262
0.0010769183454995745
-0.07340911006595975
0.04872223209777989
0.06425941477386875
0.04676857992112865
-0.03720249141561526
0.10988438101925023
0.05034424482226582
0.035328821976101245
0.04677042338759255
0.02939441872886539
-0.013061977183532704
0.023439657204522388
0.03314980650038961
0.004778648465678968
-0.036494568748266086
0.010537969132839005
0.0487207285728318
-9.54575176364996e-05
0.05582994956252131
-0.014104460396834759
-0.0012563255468191607
-0.08640571299108832
0.02124407415019852
-0.10215861917610679
0.003694430858098484
0.016981376418948813
0.0016600008375003011
-0.06519521455344514
0.041639735410901185
0.07948352684687754
0.10274174563901904
0.0011364248566251042
-0.011386390183823017
-0.0613512980110518
0.024285630988814588
0.07649215729649772
-0.006102507858055409
0.04408546091341916
-0.13364482202195488
-0.048287069234407974
0.02819684081137643
-0.07584955898454168
-0.03969029257703633
-0.03495358050734383
0.027324072385713723
0.0075054534280560165
-0.027302619438510502
-0.025585130427576097
-0.05205456594944501
0.00264679972486049
0.02463980309519774
0.04076816834609886
0.0856485196958271
0.02837634667127454
-0.05121938929894879
0.027418187428013593
-0.07024782428730796
-0.007855273143678293
0.005318682613259989
0.039237299008724524
0.03692691917128614
-0.009694272294025282
0.00046871538591988836
0.0461753361346502
-0.056267455915654366
0.05801390807005094
0.023976168592074926
-0.09304463473482949
0.015468354004626742
0.05518760036210074
0.10100224344489228
-0.02520479764701405
0.0274200002805673
0.029800919261527028
0.029619705316580036
-0.008797932966465541
-0.001657839890789482
-0.016313336633834632
0.013737888546033361
0.028563080974013666
-0.04072338571055208
0.024182000758930303
0.02271312722493762
0.00399131554352627
-0.032371220057088874
-0.05403079194370322
-0.07934165573357896
-0.06307011356573783
-0.0656736488849539
0.031435512801315714
-0.1266881185662592
0.0072252443278774964
-0.06322773072979797
0.035399560076956646
0.08219469487439657
0.018166336144556577
0.04406281198921466
0.02543422071741267
-0.06952978106499157
0.03859477817410379
0.024723291059724328
0.023945052386291823
0.005794972785029947
-0.027425685733354382
0.013760945869339092
0.05523719323126221
-0.038330889019680785
-0.006743809237994178
-0.01601531616626054
0.008670030934567407
0.03811538797680073
0.008936313038056648
0.07249392055956648
-0.02170527735094321
0.03356751298079474
-0.01967306320533795
-0.05039664160630684
0.07338396639792036
-0.010529373244964658
-0.03814250385330263
-0.02272299528992314
0.04502123678139197
0.06154027263512847
0.07230970150615433
-0.019469025956150764
-0.0076184757378934586
0.010683179166420698
-0.056974986897759886
0.012665884233581956
-0.008225850036866144
0.08336455817174798
-0.020976203863929763
-0.0014124179416006603
0.08680562275083768
-0.03448491700219064
0.009433260566310248
0.034684679777598336
-0.02445607704843436
0.043694638184251094
-0.011433129684155162
-0.002130958744550942
-0.08868465848023852
0.008311308540734311
-0.03830692655348916
-0.04465553325204069
0.03959900976011313
0.0224321761242713
-0.05310959598463549
-0.06579149364849964
-0.09574748999051429
0.06154406495541871
-0.15490032459810546
0.016859221676819715
-0.06603207655426264
0.05042553177470332
0.046088348830541026
-0.03953734778136696
-0.029302071717824202
-0.0056015241237358585
-0.03080016565904325
0.047341860895297225
0.0010719665604007362
0.14755380263524462
0.49007005283080995
1.0728280265297723
0.4232345609946404
0.07833553032327434
0.033592067661462235
-0.04050543912286644
-0.05788441070611309
-0.08641997460895187
0.015410640979024124
0.04633878476745978
-0.0175073813332677
0.02946361623760746
0.09620284828649417
0.04654891727524553
0.04090537804758958
-0.021989033341295743
-0.019699989185568176
0.01794915952789993
-0.0013101068365604259
0.023570665869691386
-0.13141313241477479
-0.029474627002180315
0.05509894800594194
-0.0931242532619525
-0.03826818467548608
-0.012089938504042452
-0.09120605592625844
0.02917995126205454
0.019534862684816037
-0.09929810974690803
-0.016578502356268118
-0.012871953225455672
0.03229027935446457
0.03667892149428451
0.0405715556783193
0.052667800086429656
0.010436340670117939
0.07534762407730136
0.029179494172311457
-0.0020907412271246595
0.08699439590619895
-0.03755185885207917
0.0053257362197784205
0.010626518256827524
0.026070574291584922
-0.023118928061345217
-0.031202480188189552
0.0572833358398163
-0.057358134252933596
0.06111286196762296
-0.00416166964059152
0.012563772366035215
-0.025077132354396844
-0.010600799163884556
0.05051519173262549
-0.022721813759462542
-0.08818861714951788
0.0024376087384734794
-0.03713088468491658
-0.04638892524890864
-0.0330098776875568
0.10756537567703024
-0.009140058928486084
-0.024202081755989164
0.042323760925533735
0.027195340781303142
0.05802554765755291
0.07264601161018662
0.12284058744757179
-0.03698743455427817
0.048990730894576
-0.035653891355269064
-0.009365165876344735
0.02645470813592824
0.003796436379368053
0.017767580366480167
-0.008946909859319053
-0.04503018521381433
0.03878413190545193
-0.0589962049957529
0.07182533404865231
-0.0023144145938410513
0.05100893434340323
0.09714334677729441
0.010103307473149739
-0.05216872423301865
0.059595153218439945
-0.012049501951621359
-0.059018744668798986
0.04761216628618901
0.03083494047131599
0.008762069260385563
-0.0407610276112297
0.06205560148134748
0.05264452322325546
-0.0013392954723039352
0.08043761032101018
0.048961807851326256
-0.03446818901550496
-0.02344517546655345
0.01781360438628579
-0.00815615875517831
0.011783162502399313
-0.050588587733338956
-0.03446502150444615
0.0037488138239146034
0.012811489542787031
0.01066668602768023
-0.06407520423414517
0.008053487368171587
0.04991603511565096
-0.020265685335524808
-0.034945719158944406
-0.02187682110412173
-0.016090952289561113
0.05906771838662216
-0.06334051730824605
-0.05004739528245862
-0.10463092768045397
0.0590203658667112
0.015237162151271053
-0.06196161492104919
-0.01097090812430045
0.022476738049238366
0.02959029320170022
0.0506496443314456
-0.0810027165624991
0.05304146461698133
-0.08477027799826888
0.048622890375326557
