ecg
0.9563780802294499
0.47016919164508025
0.02756571751064031
-0.0026528186717837015
0.009891711705363924
0.05763130806410528
-0.00020630524684376643
0.00874247643102241
0.027086225912043724
-0.00754175733189515
0.0709192821799278
0.00689401047789423
0.05737087142416445
0.10054655583299746
-0.008345458113350752
0.05640694641359642
0.020885285012503085
-0.06558084336141726
0.047676063631963785
-0.04934167625456049
0.03793504533679379
-0.018258717673104812
-0.04653069559183753
-0.00993568742324587
0.04963752983784043
0.04876928184500064
-0.006489659587062532
-0.0878694716888092
-0.033693012453703056
0.016917279479171293
0.04530820752083911
-0.06674491034951212
-0.007993420047526822
-0.009997572596301005
0.017755746450699796
-0.005074331380503334
-0.03004501049062292
-0.008504001514354898
0.021041112648364328
0.022020498848210945
-0.00019450367596219543
0.016695468475709425
-0.04427725168709317
0.00018211777180715473
0.1347861031720343
-0.03643605447705827
-0.039504330814027426
0.004125982564976517
-0.00941423301903308
-0.03873291361014596
-0.032812644150351566
-0.03110672280328876
-0.04697755494365894
-0.042637114237774866
0.05579117440533981
0.09979904115955962
-0.025538594841288745
0.12194342935640348
0.013575247485826825
-0.01823246056176417
0.06907316188686122
0.07171420197464495
0.00843720037061235
0.02511110117858395
0.051072050041478294
-0.020646231115056066
-0.00884493898899418
0.08053889755144933
0.006300416596432251
-0.0037398047689195706
0.07335972004447525
-0.017629863746072533
-0.08571171293503681
0.022543444042699402
-0.0473595994192228
-0.049125249695011475
0.06697627836228287
-0.018079898349050293
0.029212796453674878
-0.08614544941615963
0.006164821698547394
0.09367227287944332
-0.003306411932202302
0.030605390231906872
0.0250455617534198
-0.06792672487859532
0.0506034562719378
-0.0772514270082382
0.05378439806431591
0.05627782226376951
-0.025115824435823816
0.0005359909540235397
-0.01992928865201315
0.006930322945744305
0.009397597719084149
0.0647224878398071
0.032816061503426766
0.0953855544753652
0.025818250149679457
-0.03678970100885918
0.042729177226488786
-0.0019546282798699067
-0.03594642103003522
0.00828474788971068
-0.036429539168259376
-0.04269810186659371
0.0038852663804833255
0.03432435454869849
0.04249734345883721
0.0007742659625681631
-0.021546583144735593
0.13243647027047312
-0.004152794331416946
0.061754305130034076
-0.02310038718973921
-0.008627420265813594
-0.001632335538955627
-0.08412662379730429
-0.05505284803535113
0.022249516728708188
0.038802045505260216
-0.021864906131954305
0.08086710884894847
-0.08511416345377534
-0.03369419107821895
-0.1092839517789354
-0.014352167907377764
0.015434272345741058
-0.060672640974579806
-0.020198259057905052
0.059620113836228394
0.0047827736222575785
0.016511346826203168
-0.051311196823387806
0.05421367511110872
-0.04167311499254539
0.12583690733875577
-0.029496278740509613
0.014867529661487201
-0.05731301807923006
0.04513118313182029
0.08714393975886342
-0.0327097654420514
-0.00672640552218253
0.02124835315578162
-0.06397809703849325
-0.07948647065109253
-0.07162756321571245
0.00036806848750468136
-0.04227243451928335
0.09120618886372255
-0.011332071624051091
0.06725925585894527
0.05853680311560275
0.5318200016225902
0.9826097250036647
0.501350469694588
0.20605017226659994
-0.07372044721187655
0.00881369187891385
-0.022776401081835426
0.034039449509265546
0.007339256513849661
-0.07215167324916126
-0.013227040555992829
-0.04941663488456031
0.030192786778387305
-0.12368414383623468
-0.03456992216370562
0.04926480497500519
0.038019342306477126
-0.013701172670683107
-0.09075003670537787
-0.0701606144165897
0.02569420827768137
0.06554262559809432
0.05124827784418306
0.02714774456980808
0.016056563013633705
0.05317483086067507
-0.03695738246652207
0.038351374226110936
0.040979723730615945
-0.0064216236082081345
0.04305296044417928
0.006804560412380996
-0.04968169263782929
0.007646231960650302
-0.05822476114917072
0.05002800512476442
0.03887323000227569
-0.0103752691476688
-0.005298087634613206
-0.044081014745402276
-0.010886320338114616
-0.02302394350629184
-0.008628477202701731
0.0063280341043350195
0.027193898368951128
0.025473237210470647
0.04197928813297078
0.02309240225356607
0.011651397808597128
-0.030087602845363517
0.00770069992659473
0.07045666053826559
0.006530242921265052
-0.004910967129974963
-0.009429302936445439
0.00252340841133475
-0.030694364090293948
0.06601010465457907
0.05644665518920634
0.008717980505114303
-0.0489671711072722
0.12432132046828502
0.007633559290938301
-0.04946075551550965
-0.07748034881585356
0.013242934097388285
-0.04053734605326856
-0.01877505148577223
-0.03280377981296979
0.04535050386503777
0.08890232103935847
0.051149694880186725
-0.03148082216075817
0.004841269020405151
0.019028042557089786
0.0044157064629328875
-0.026967815254411984
-0.03086714961970082
-0.004119487587041
-0.0015334202422338946
0.11729511340014438
0.02856298296025241
0.008076902045964118
-0.011694806070374961
-0.059333952518203226
0.08041403092019589
-0.038029005379022755
-0.06524281766471245
-0.11934135419935264
-0.019783304282279108
0.06398804778444543
-0.0701673776676824
0.021799810522850224
-0.002426817479383646
-0.02516973161572872
0.06441303023002087
-0.05318145135256696
0.025508667494632115
-0.05076085269240051
0.07850369044519886
-0.03821579014333064
0.052561668818566235
-0.013166347446684821
-0.015835292804695825
0.007284399816998824
-0.08510269545344605
-0.12058196495201551
0.013194905996276585
0.052805484744986676
0.08065234281758966
0.04213777737823114
-0.00864949738599531
-0.010681177854892107
-0.00746647289896984
-0.06164991053663382
0.04749877253314333
0.010761530447873827
0.05171927432276971
-0.0673558288110686
-0.06482854930623767
0.019058233536767947
-0.0010391226297599388
0.04904271505874324
0.02290580228391771
-0.031222789990125628
-0.01348286416039758
0.01729192167092952
-0.03843219238377619
0.01111032256428205
-0.03915497586520334
0.056777630634747736
0.046601053261978054
0.1435941879425681
0.023782740605155027
-0.05340782913124255
-0.05879805727519193
-0.04536629760966732
0.0256063478005106
0.006470762943492889
-0.011660830525182414
-0.043250040207200295
-0.03623798384475872
0.007937817595413281
-0.021409346165545712
0.07398705404274492
-0.0008327269351320274
-0.03120190645967022
-0.04234213087189322
-0.04981325767160589
-0.057925792834252726
-0.1042195538105212
0.08146694163588511
-0.03074738905841223
-0.005299221780651499
-0.02968591245353246
-0.0492162572141555
-0.038477590758005914
-0.08110429378847787
-0.0635868052612676
0.10157910623711235
0.5456230243474705
0.9376418847111423
0.442778530886484
0.10689912087858419
0.030606292578753955
-0.007139958420645423
0.081878956224016
0.0008338699877941157
-0.01627398405990912
0.013400183472766936
-0.00196312603138634
0.1295294932961739
0.07078107023670598
-0.022479638462013236
0.10380276433264211
0.036942055641633526
0.08604602419684515
-0.044142557168330404
0.002042573201852911
-0.0032317872092728927
0.0001357150716453376
-0.018376933744886036
0.039576965581408746
0.07212819110637304
-0.01330247187746584
0.05225813630547538
0.02827289003435492
0.027720113587275587
-0.026085159095129297
-0.03194310397852087
-0.0681377604069026
0.11201951284637218
0.11084453445982512
-0.0008678496515137305
-0.03507382422742367
0.07278182377279219
-0.00900379403264278
-0.012473639308897885
-0.043736442662746386
0.09150623391564805
-0.02862390515520077
-0.023468756434309564
0.1501896033722334
-0.05615364940724474
0.06900855202328428
-0.016429942607396216
-0.10550111918787704
0.006738235804006832
0.00020037832637443502
-0.010191902411484278
0.025705949854560508
0.03183877395191215
0.015582837744912452
0.030173874435323628
0.03129265406336653
-0.03505540175715901
0.022206863468577514
-0.03022291278061928
0.04560297953348084
-0.0715783018469553
0.012119695719467258
-0.06269189073399117
-0.05731071026749634
0.03064303531892499
0.08739961626932402
-0.057829959463516795
-0.028788884797438248
-0.03855421299974456
0.011328379185085813
0.04439254402622511
-0.0031965727424552812
0.05905283651755597
0.07648673758594389
-0.04137019833353804
-0.0029212302279383044
-0.006957666890860023
-0.07277181824197734
0.04984715131475076
-0.04658982414991945
0.07238096328273468
-0.0366684048945904
-0.04171547069312255
0.013749783723514925
0.02647924034990003
-0.03636239855017426
0.015020411309997187
-0.02483624371320852
0.010489427829471152
-0.02005012496548034
0.11685084595400957
-0.014253279465177501
0.05271217001599796
-0.006303413841825075
-0.02730063200548878
0.028992085334996365
0.03988031648973084
0.010872761432095963
-0.01882924388407347
-0.018068512526801507
-0.0627861298558859
-0.021187279466051954
0.0034796049418571937
-0.0002875261835085329
0.12493181041111157
0.0715044716628096
-0.02823312804897285
0.025482633552105283
-0.05713268471861151
0.01610819135083223
-0.02359595917432555
-0.011870860088555604
0.027844161058319605
0.06656368957499927
-0.05900725280956344
-0.016282050478763237
0.025866697627917712
0.0016740229235327577
-0.018215453898691343
0.09931273236788074
-0.006834581312087253
0.006926053085017621
-0.019946032083690553
0.11082698127651376
-0.10072404567043086
-0.03769641316191367
0.05362649084983058
0.0027445222206953137
-0.05545817960262717
-0.0012149058361112745
-0.003571646506594257
0.08621762880971867
-0.09628630435591463
-0.051454783959365216
0.0125798928891067
-0.0774721598287805
-0.013713280870806477
-0.0751396024774863
-0.10699251522703102
-0.03092583799777676
0.01141514394812005
-0.04162046977506084
-0.0021295422801401796
-0.05470794364082141
-0.01459464132633439
-0.050678417141057266
0.036406106139759246
0.03591422532097017
0.008965013853838825
0.006300017677393794
-0.003536799703581614
-0.020098531501076926
-0.07650574915142086
0.000995354830425371
0.016337705771599195
0.10032571898737237
-0.08948169493732293
0.051928779652390414
0.15267046744837293
0.5048672355256405
1.0959413588651958
0.5294501763913217
0.13778500945057745
-0.047127062877580235
0.022995674346272737
-0.07827529912820543
-0.009172747255577512
0.07319422037233955
0.09346356119756485
0.004298629876257078
-0.06218993961264692
-0.006619615733989008
-0.03799655599153176
-0.008509814070692673
-0.04653929592821471
-0.05295783875289535
0.05994033787815211
-0.01618927678218608
0.08311212374438616
-0.01890240005424854
-0.07342805325898977
0.023697282953492507
0.01821389203948972
-0.05010994254719491
-0.039322794177903665
-0.09907095218769367
0.0545116784520326
0.026958432407229158
0.08731378419323566
-0.0488742408441365
-0.031743836717052894
-0.04874428848391667
-0.009820664626465596
-0.04132583338436874
0.0050222710939051805
0.004227486168926478
-0.02545232547058776
0.022663627897961128
0.016510113817715426
-0.03198856167933841
-0.06361357707514304
0.0818451839722272
-0.007904820906776673
-0.037917164605545034
0.01584960947683373
-0.0740260748799795
-0.05157840798405418
-0.014550335640159485
-0.07160753035339457
0.0263787596152704
0.004938144568033646
-0.054668592926305416
-0.018438995535891105
-0.11422794650688778
-0.009679622011920115
-0.013551287405272158
0.11591471197820656
0.029282081645182142
-0.037605497324433274
0.042163201944096916
-0.0018513426185441625
-0.03918868408909981
0.017097279818690702
0.05870336981576301
-0.03468231600834853
-0.03790771992306375
-0.06246003331265855
-0.09240804516739276
0.07342206706560021
0.023448895221531218
0.11445950429211288
0.08011757843280537
-0.04351933036580284
0.024277229046996723
0.026343700959105345
0.032405697384622005
-0.00455248106746585
0.013871214000703253
-0.042075457965570724
-0.0912672919907219
0.009299521467672683
0.03450536452473429
0.051446276834296346
-0.048556599706852804
-0.05126226759500135
0.015728806193296006
0.0718463100618779
-0.08007107393584309
0.04904458121287878
-0.07395976779600379
-0.015820021976179183
0.0021288112150867036
-0.054820681035140865
-0.047622275495492854
-0.09963788144105162
-0.06217253029636108
-0.035764404142917476
0.008940661238366095
-0.02882355942148855
0.026830858399744407
0.11114850337228964
-0.09778872138782921
-0.022952989802400618
-0.03365134227324631
-0.017752405865937376
-0.005651683972317201
-0.051378866143946246
-0.03563874996141096
-0.03222241280217855
-0.001738217720358282
0.010901185930414913
0.022178720055304257
-0.03340594751914517
0.08879941983460235
-0.003945179133766297
-0.05601587987406981
0.03663320957819921
0.02183149089349786
0.010116586910415393
-0.03691072374558122
-0.010335913367506468
-0.0768997287590589
0.005851872762255333
-0.02092647783200153
-0.025071128661376164
0.07815957327307764
0.03237607387294219
-0.01614771943442248
-0.058213611451939776
0.00017217654265199765
0.0268739705788557
-0.005483928607726765
-0.030469192322166296
-0.0408564694391559
-0.023412261263435652
0.033076054216188
0.07155498813224527
-0.020635812906192097
0.009717182016851731
-0.027844041174427372
0.022685638537066198
0.025103272736316302
-0.003636669618405435
0.06830668716244633
0.04436674279445386
-0.08617563358024065
-0.06299449301431917
0.0687130298680794
0.025360607231586542
0.0025888875973573556
-0.04357445776878489
-0.03226485557029642
0.02356539864994993
-0.06879353069590136
-0.04790006454880389
0.11033143943702389
0.5341281792930948
1.0210030126802825
0.3930806707695505
0.15300083066861195
-0.0020051229702840747
-0.0718870116974351
0.06214464507861076
-0.03479558442657337
0.013755659312275388
0.12994897341256648
0.05487261864986714
-0.042365486852842464
-0.060908443682012425
0.057569004949438146
0.047086258616528716
0.01776083235794352
-0.04977743411973449
0.056172494111549336
-0.07371005249089967
-0.022292210978300607
-0.06255609594654903
0.04961268696538209
0.013996181978171868
0.05446108428528023
-0.006948853487600493
-0.0670901637134112
0.04014850071228839
-0.06724599273677599
-0.03951770959927772
0.022910970437738667
-0.013989153741178754
-0.013151952055619668
0.029043343269330585
-0.04469111954093102
0.010070809805094054
2.5226850184974564e-05
-0.0401501037013191
0.02736365707672534
-0.027469791473861645
0.045939525549707184
0.025989316870670295
-0.10189916297876528
-0.03714400996007413
-0.026483460155814677
0.0235091151177863
0.008462313519959139
-0.11855194021655213
-0.006494138703105667
0.048761865243141106
-0.04967921895206147
-0.05829466028884431
-0.035873449476252754
0.007669083341307595
0.034850290739280955
-0.008067355435444184
-0.01972975193514606
-0.03370741164818809
-0.0678646983722601
0.15131535677941388
0.016456265730275588
0.03198942930596865
-0.029562440778037075
-0.01508052216173157
-0.01228450871912453
0.05370656412594933
-0.04829032530119243
-0.05706049487641506
-0.11459780598230217
-0.008596707036296735
0.06866355822486146
-0.008104730370410831
0.02359397399113454
-0.052491930788183885
0.005263239270577296
-0.013726687010096474
-0.037368456991846835
-0.12789596727835847
0.13415963802618755
-0.043432690155462535
-0.034577632676470446
-0.03692985796680217
0.03793902718998574
-0.01828510188487908
0.033519171904549165
-0.049710071701280986
0.07433132702477478
-0.03057331778809253
-0.020571284973630078
-0.00909143334227174
0.0700228142070498
0.04851848861515822
0.0037098222342497192
0.051004885667458526
-0.006215358844009682
0.028702743596450166
0.04632836805226792
0.014333396921083083
-0.037053574252078184
0.06051299559214046
0.008404872542862351
0.05120373592899492
-0.017572940675789305
0.04979469281428176
-0.008322957962750495
-0.03238849059597438
0.0375324694529292
-0.009846139112690187
-0.018084617323649715
0.013805413699900557
0.04045658749319519
0.013991045590919002
0.00976240965680062
-0.03947293596431387
-0.030463497845652318
-0.022128547997825557
-0.008908017175033521
0.04879444453042004
0.012046657383219977
0.05336533578591001
-0.007745089653600653
-0.027545534006275203
-0.0253976758710558
-0.06907949002435664
0.057497204259487955
0.05197795268177076
0.004812102221651242
-0.08732884883688782
-0.059000534799278484
0.02616684003829911
-0.05176963571285716
-0.029524618279633104
-0.039246148765606816
-0.0017350925707880988
0.013598069914732972
0.054349976355128775
-0.001972378002278249
0.042874959000796964
-0.051508584801983316
-0.00092557905773298
-0.06701633965254476
-0.07358426645395504
0.0050544659739444895
0.11985842703720012
-0.05051831930292686
0.025389389578040128
0.12418176093109255
-0.055716140208877024
-0.0007889985243467199
0.006897290296224441
0.017917971170402613
-0.017773493223506725
0.00876683179671322
0.033973879382978175
0.4901259526062022
1.041236721055126
0.5653202577269376
0.0918589485004606
-0.12233381346178412
0.03668478197460071
0.10940177791918033
0.06861543565308093
-0.016167389876552807
-0.018530371930457284
0.07763380832108198
0.09187238488322623
0.0840133021059555
-0.0671677256855738
-0.04136556054273467
0.02744836408169853
-0.0461038967828377
-0.07915301709177751
-0.03015647401054318
0.05660049283710897
-0.07281929256887092
-0.09181306834433393
-0.0035772968385395427
0.032103386239285624
-0.06123931737959392
0.0008381166534638702
-0.029592866944241472
0.004230824544170734
0.0166741097180141
-0.13394028223377308
0.018252819156518902
-0.012514766495955615
-0.08161906405069191
-0.03391173065357292
-0.022555902924568466
-0.046418342321566275
0.02032304319180622
-0.020130288429701614
0.08760402369485301
0.0020332312992687065
0.06979659916122856
-0.04481145918695156
0.04097978841305488
0.057738752055098
0.05556446487780328
-0.0636527799405041
0.11340889890023209
-0.08762468842839488
-0.004361571724082598
0.04519628904291939
0.00578447215036137
-0.03604990474288862
-0.07519959297989552
0.07346514008613829
0.04694011978064418
-0.05587894395285658
0.004436459167570301
0.03251495016149024
0.0012734338776547562
-0.0013609078064266745
0.018120575896784483
-0.034795086525212876
-0.043492266150462415
-0.02389092772454154
0.023868960289482672
0.07571386588764939
-0.044369538174209563
-0.07475607482305673
0.004800431859679272
-0.038852250150540474
0.020655325516110552
-0.002858654566583011
0.011207792213330386
0.020105372899460128
0.0020408075108685215
-0.041104699338031465
0.010475800499431268
0.10522221291170611
0.07277367550302434
0.01848701235042494
-0.06644107652399182
0.030639990234886796
0.005412754204836334
-0.02723317808967776
-0.057243799387902784
-0.05632878851991311
-0.0461614740866394
-0.003924471380998374
-0.0870581284015384
-0.03681822423949196
-0.00732806459205099
0.04493059879791625
0.019722667229946783
0.1209305998987539
0.06495930028908663
-0.02678751461562276
-0.041146837315854876
-0.06743903588122473
-0.0600099721359497
0.021603045181648194
0.0036994320546420694
0.08847792082722163
0.004397310378375251
-0.04787847457348673
-0.06590056676743121
-0.09046338023747331
-0.053167508634174035
0.08995543430672034
-0.003929073379255574
-0.0534056358454687
0.017245757892735275
0.027720841213023352
-0.06543083636051662
-0.060678118876702325
0.0382302742357778
0.013477860476754634
0.02783244097248122
-0.03978988944712966
0.015423434338893375
-0.06690502046986883
0.00045854833437029824
-0.02973061762183592
0.052140862738384856
-0.07068482357275097
0.009720643638237249
-0.024330023487087113
-0.009160877309085198
-0.08865540656510135
-0.011783583560647164
0.024742264741233796
0.007864302508000793
0.01591084626654682
0.0046182879936445004
0.02695099050980936
0.06082452777078125
0.014446913744380821
0.019391549334911475
0.023489090673022357
-0.125604937666533
0.041620153266712485
0.027378011320431335
0.02463422866532436
-0.07127954131084827
-0.11581489201207767
-0.047196306937110744
-0.04433079538041068
-0.007992409175363152
0.07279688938170063
-0.0782688124803674
0.04078920637581816
-0.08430347557645608
0.043045680161203276
0.13452098203656224
-0.010637445427349165
-0.020008141078018595
0.021179002542104437
-0.0008934856111599372
0.1477293977541485
0.5956515963455234
0.9379253491374812
0.4954719620210198
0.04123406151386936
0.041550995465107536
-0.024970074652945887
0.07085180699666144
-0.04461611352367194
0.018247125440982653
0.012539942072337032
-0.0108938114010514
0.008546830922062296
0.02242684909405749
-0.043202936357611015
0.01212760435625057
0.027316169450915
-0.029349330674130182
0.0569272453415827
-0.024558447930893568
0.007054765079978463
-0.005332384204369035
0.02201914466270571
0.01406238131193964
-0.032396203439890144
0.03669011591146871
0.07479294560768728
-0.05783363447104615
0.024537996659687263
0.03589411334452747
0.07643314756543906
-0.03349297998928031
-0.08377615019747359
-0.11926161612491018
0.003581232123653165
0.05295560698567134
0.03232002103373735
0.01045188024692717
0.04417759452367174
0.045025511630438594
0.047300139736107534
0.04738271397383142
0.028386696626731024
0.07528307040455245
0.037365975564712994
0.03104045650132566
0.050816445196149446
-0.06695397059410418
0.0639494724472086
-0.02267793641979722
0.03973340945458301
-0.01066748827858442
0.08232772052095041
-0.06218680118352221
0.03500040555622113
-0.036465776517495156
0.02412896665830942
0.04601253734984112
0.003790161786406256
0.11713966982341123
-0.018408452087981465
-0.002995284277355374
-0.035984647557909595
0.05676046913225268
0.08436859714317246
0.007520353566343763
-0.029730759059557507
0.0038949783033964238
0.06106869639990854
-0.04487846244986737
0.03961989791247944
0.022186229097092513
-0.08439800752215791
-0.014306027944700978
0.08106150915396648
0.07074572836501439
-0.02763118999337157
-0.03779103694967996
0.05495316929495001
0.011300908964352003
0.008928556638016437
-0.10626353719636297
0.043220702158100165
-0.010608085966005203
0.029458924160395708
0.0035214299133511946
0.01757969186448761
-0.01377194385914362
0.03415678159905199
0.004852676256849938
-0.08506759640075612
-0.0032602544568583187
-0.021859340001522252
-0.014022129918059812
-0.004694308699518863
0.043699223631585335
0.011010427577389665
0.03984429891703228
-0.06751105472739204
0.07744197250551417
-0.058844325603677486
0.012655866506937325
-0.007587853106683236
-0.06808360511354773
0.0058398797974195775
-0.02031702576215999
0.0076979920558782585
0.031083253594015536
0.04425358131285953
-0.08300420791500943
-0.012236946375284757
0.02545420036101495
-0.021810964388483955
0.022453467171485518
-0.025541796487474972
-0.01900310633789558
0.02120663353186608
-0.03087825972223901
0.019706239362422124
-0.02854351903987807
0.032761923057223856
0.04426798309982921
-0.006845020549389103
0.06323881004073142
-0.033244428885100846
-0.006921537502048833
-0.050702727011945115
-0.013250407656794498
-0.054732151341625415
-0.027215334685670875
-0.010959812133487946
0.036605664781347
0.005417119244787608
-0.11385453291100962
0.006007412902138104
-0.02158319696994408
0.024095205094719088
-0.0024941641988988654
0.06299326623280475
0.10319776713270193
0.015855581926214387
0.0180979692602303
0.03939574956965313
-0.1036269050330019
-0.1402677524086536
0.014926452148511255
-0.0554244585820525
0.01772051148798239
0.017144627329293945
0.027648775119451987
0.0231993050735989
0.019506334134550413
-0.1159453558141792
-0.03994962661397765
0.050772005111738266
0.011606748234015661
0.08058908088130262
0.029612929680298872
0.04726665823687474
0.06371524795211589
0.5152265757978387
0.9584748337969432
0.5484447202757783
0.20175923304389642
0.08873567824677167
-0.011087867036991148
-0.04318434299846831
-0.02065415975287556
0.02332879782206099
-0.0007925453019068
-0.07568051527754634
0.00546110207990643
-0.09540559219710548
0.03022218000345338
0.04452020814061089
-0.07772330097516778
-0.032959893871918965
-0.01531394841499228
0.001761455532415833
0.0990695636405306
0.035516342997814095
-0.017876500482471316
0.04084619323750392
0.01372802351551411
0.007545395048728212
-0.12427827719470429
-0.02455894407368906
0.009009140440323608
0.026035014583248136
0.014764755145820927
-0.015013006091236337
-0.04790253748260304
0.051545521322976406
-0.06045973414451217
0.016897783703031452
-0.042706452884668615
-0.031187824776747204
-0.0010652007858021441
0.010194170668479786
0.025631157963369167
0.010380533076707062
0.0063194452446448685
-0.020578892906502038
-0.012706812753504835
-0.05242519403909553
-0.03336652898291928
-0.02848276653463669
0.050073968906169546
-0.033032735822921204
-0.07446538963177092
0.05069935994933639
0.02539573873724642
0.057363120632961354
-0.003947269395184295
-0.00922354576307059
0.021164011446119013
-0.012835686972793088
0.06173013802208478
-0.07905456411188873
0.01894866353427179
-0.01882461778488602
0.020990464952487062
0.012284783956940267
0.04561954585420096
0.0710947987651979
0.06149642863135083
0.05314063020605975
-0.02993637230969722
0.004234978564737409
0.050085565417802284
0.006957777435021218
-0.09034824153180346
-0.05536895364554152
-0.012138269574822384
0.07449011711695307
-0.021862176398735167
0.010108315372727512
-0.018195383847638722
-0.020476659911216697
-0.04760982066557336
-0.016165065145624546
-0.006816492087469348
-0.06649099105326321
-0.008721367591313313
0.027000940091259574
-0.01603080321996301
-0.04066417026878708
-0.02283031177581968
0.03187055897814999
-0.017113015244277604
-0.06559637064240535
0.09035705419092255
0.11730669870402828
-0.0008414778400129494
-0.011594251197551754
-0.032553928125363646
-0.04545855502204473
0.007212227472802506
-0.015780399194485064
-0.0016649693884650326
0.02119019825964938
-0.003751188244073502
-0.04652901400183515
0.056578958243352455
-0.08073935399996918
0.08821507062765982
-0.009595708161500432
-0.09425215579377608
0.04988341548404805
0.07413843766948228
0.00865348341529221
-0.04468225992787543
-0.03647280362847224
-0.032234200676841185
0.08718337973681495
-0.04511253952758987
-0.006472718013856599
0.07457427579770592
0.023374779892971265
-0.010416031239515046
0.01973989412302532
-0.032052775700798015
0.03691701706577282
-0.02068837093218424
-0.11641111239239946
0.006566004590896105
-0.07527693260025548
-0.0938783580169879
0.030352516762810245
-0.025859336920497928
-0.016109684311631664
-0.09279590650722046
-0.04635031582845057
-0.12266572970861514
-0.01780000799418108
-0.010883449395642378
-0.055569282902090046
0.08145803781777543
-0.04162774458311397
-0.06470906369743173
0.01722318154781888
-0.05168433200621996
0.08939704588026164
-0.03897681429439566
-0.016232641065543407
0.03252575528482308
-0.01910077426965411
-0.037850661956044425
0.0029312407292802767
0.02005798409478234
-0.1072700264739577
-0.007626890590086941
-0.00825441216138228
-0.05485606308321679
-0.10979242537081287
0.01847586536851234
0.49613007164668066
0.9921983999946031
0.5689800495786761
0.08625334304093132
0.036840391724827275
-0.043123193562163126
-0.033947946830286034
0.013378523290263351
-0.04739277506609973
-0.013562332118965827
0.02774804771810139
-0.06976836774328037
-0.03943653018180257
0.06600223215948478
0.04919454877917077
0.050718025605754814
0.03645475135684647
-0.06320172498523949
-0.07623782002586849
-0.06675760915842315
0.07434945387466212
0.04144973910594241
-0.007621539389614202
-0.0009667376018013814
-0.11655571824546439
0.04366447059246783
-0.005382292286312613
-0.09353746728410449
0.012130147160723474
0.03445991378375913
0.009609474062276295
0.06900203800724934
0.03184556902395457
0.004858029005247385
-0.003229215756858981
0.10880870637415348
-0.02350531366835515
-0.05047144520093891
0.017221133868663897
0.016054977607522284
0.02469435865495699
-0.055642397291007256
-0.08003243322031592
0.08050229040751775
0.06633753133404711
-0.0018899570776230172
0.02401497588471975
-0.033736717801635084
-0.0018289129904496646
0.023992208062923258
0.00711059474229056
0.03895816769683483
-0.004387998358626357
0.07456026860491018
-0.06880789309848893
-0.028188748036572064
-0.03442371914581748
0.02825362863226832
-0.05850602635825236
-0.04448961049600789
0.04168191888294742
-0.04147610391885578
-0.07351818165825194
0.03801101348253008
-0.037804795201242185
0.06595000607966343
0.0117694513470155
-0.03127414735106741
-0.009603123770751655
-0.003187913959478898
0.03131284949676096
-0.11779087145888044
-0.024343742268982102
0.062237613663570036
0.01009467951356272
0.0402462877742188
0.10652990807766119
-0.05062859610935903
0.06388108073071568
-0.007716951591189479
0.006960922158846087
-0.0021571321725742617
0.06646633697530815
0.033231363744855885
-0.1251754714265444
-0.1011062131069833
0.024876454673256804
-0.05982974757440457
0.040026675008310614
0.040244848016398556
-0.013196495101250198
0.08647508625823383
-0.0822365068252775
-0.04113223944790209
-0.09051826995163142
-0.03094459593635192
-0.003638322880185547
0.02811640357635299
-0.053951299266167874
-0.10640354969109936
0.038273495104075676
0.022694628713366704
0.04306068845219381
0.010453624504385957
-0.05300578354321231
0.0131721106207285
0.00016495657740895483
-0.01598330932172026
-0.017029757279522387
0.09850043566724957
0.003932686487449023
0.0021317150671492564
-0.022161551479421306
-0.04422719364801345
0.03361513569820772
-0.0057008867349766625
0.020251326077017722
-0.08532284285648073
0.011654602836284762
0.055882232226115394
-0.011281582946652886
0.13737313276965946
0.036124587936873814
0.05229185012184117
0.023833944848575647
0.06109859018643075
0.012947942195502972
-0.09160868932806324
0.015068749540461874
0.036189328539227836
-0.021649498707565357
-0.05444855335895139
0.10268015692970511
-0.020220412605580843
0.004006208521964281
0.08424052282581974
0.04664993426623774
0.024046631059750533
-0.016723978017191568
-0.011883877043084148
-0.029573780900278703
-0.03519668959686604
0.021518443782228218
0.06383909103800041
0.01040723894946271
0.08020303880261993
-0.007287423683313971
-0.009548888697077663
0.016363764616199494
0.015492268486989438
0.006661229514637032
0.053193549576160286
0.020993597099737082
0.016532704059023916
-0.0539587168482531
0.03863519067231525
0.07565625070234487
0.45407061618966854
0.9052960554576653
0.5145461573570895
0.03811926704268218
-0.09144718080485141
0.050621624046340255
-0.027792364239572476
0.02784952037772357
-0.046588574213148014
-0.03699665930936888
0.049820646452568014
-0.08909255696377343
-0.02351257090547094
0.028658677624959362
0.05497394115441465
-0.10424416819253045
0.05315128054246318
-0.033688804896933815
0.06366564307839855
-0.07920342422847709
-0.011735367389437437
0.06146081423975702
0.047471881849387616
0.0203840046894688
-0.029132521451381184
-0.08409842982258475
-0.005393093459383309
0.018440810721861097
-0.000730842506260298
-0.015506519072060274
0.05599391212258843
0.06453516354342022
-0.057064835243447826
0.02014082085041588
-0.0026986488515215222
0.02579253803213278
-0.02395649302342684
0.09697832321416495
-0.03240985378180446
0.017649255098517513
0.0023661887026474046
0.06353906037661976
-0.05157616820106434
0.03846449949446019
0.11631687491482656
0.04500400753342204
-0.011655250204750086
-0.014423972637726691
-0.02662709131415519
0.0024431950792055874
-0.024955914623165883
0.06083319912682277
-0.01783969750188452
-0.15506819886708995
0.05563338268212186
0.03856248948928102
0.015377590666558553
0.02125599798277141
-0.023897904213919442
0.02657441996124876
0.11128605196146124
-0.0198871139891771
-0.04474963707900856
-0.04418302895602672
-0.008468344173234077
-0.06360359642431071
-0.0026505011688096065
-0.027341418067835428
-0.036371869135655314
0.09683237240025944
0.035518347294512025
-0.022163360863165567
0.06579377463733367
-0.011708141400211588
-0.0334684260909882
0.0014898496276298176
0.02528667049451418
-0.09067098621572821
-0.03385146844658564
-0.017092136889098625
0.026663395482758524
0.02655878491114412
0.030567598390519386
-0.05367886846302923
-0.0027203702568341336
-0.028245049629867597
-0.0043603919071980015
0.010872451882853285
-0.0225092357729672
-0.0420176408532624
-0.03947611122559999
0.04916429519872421
-0.0257348627134196
0.057508297100559824
0.07809664044506927
0.10622907110711832
0.06457826223727903
0.012633437281918711
0.016511104098086118
0.05793129822451429
-0.048919168632108115
-0.11857880989306864
0.018363194726904796
-0.018048943352937715
-0.13404054921222538
-0.04059222372423131
-0.015997555717633862
-0.0051354128782110835
0.11823766336306477
0.008426795470512978
-0.04341971312973333
-0.04335147001340608
-0.013583225633548657
-0.021057565408544726
-0.02401866072737455
0.028443852846428908
0.009904583423796487
-0.011766127223851805
0.023810062302607585
-0.05231223086691035
-0.019785042835842745
0.04860187329153126
0.07946092605778787
0.06838986950113246
-0.05307794034486305
0.02778330676601618
0.09093092670884549
-0.06819041635243407
-0.0077063946896488355
-0.04336513146366924
-0.038627277717200946
0.015616597848225097
0.0311422171742209
-0.018903862647534853
0.036358877756635384
0.009925741242970763
0.0064547840114820955
-0.002243103785814816
-0.027128596352802715
0.10223965738303711
0.014840518187636207
-0.009172268763423877
0.1284874858680455
-0.011154014766875966
0.03652196025528544
0.05715858549296651
-0.02000811657562338
-0.05550154883792398
-0.027873050082237616
-0.08312235897318007
0.09998635712732468
-0.0908029014107457
0.023776944411818313
0.10485362850907809
0.4947341741802001
0.9267072589221332
0.5332847540208884
0.06750410461535371
-6.735156061776455e-05
0.012529390490731466
0.005029865597093494
0.04716786974229772
-0.007476051944303532
0.03248609088090484
0.08086950752769563
-0.016464399874118907
0.014575126225811747
0.013661507525430728
-0.048039438185978084
-0.026874504223776657
-0.0043391624774140975
-0.06287386141133862
0.0036032060513889394
0.024182453236976764
0.021516420676325657
-0.04205599543587149
0.05507697933391175
0.04621280298393827
-0.057905995339419584
0.026271864429680394
-0.022721847032545817
-0.04687550086216046
-0.031230284370848405
0.06844747405842184
-0.05459367751385015
-0.01886080708348148
0.021482554163435225
0.013114691579147643
0.009768783610812631
0.01565609333584873
0.014396872712581783
0.0323999233868512
-0.03331762664018182
0.04102917765761227
0.00580257685333368
-0.04359029675249034
-0.027467399904431325
0.027359824726933518
0.0347733836443007
0.0318051755240413
0.08830814842454153
0.03886257899398067
-0.03889361658588607
-0.011785606793772246
-0.012585941130858714
0.006078274718511086
0.06512289391364127
0.05776515532807208
-0.0022111652965772044
-0.08333978730461206
-0.08538803617094337
-0.014984642743449903
0.06964576629521453
0.00045620548666391544
-0.011625396655266382
0.02430581158995309
-0.007514067826382562
-0.01653175726238115
0.06575034252829251
-0.0437056749839049
0.05947924692248448
0.0014446058427154598
-0.021982011842204878
-0.0611739525431128
-0.1184799529026221
-0.07747014656309821
0.011754747139378078
0.03604984434805949
-0.02365134241549688
0.0057970385585257266
0.06319369580088889
0.02359978415913096
-0.07173403056442647
0.01128121126439097
-0.08077846500810651
-0.0194389723093671
0.0006883612909824921
0.06907155693295362
-0.0633442278174834
-0.016485822870655843
0.01570397639579398
-0.10879326182960472
-0.014598829903350758
-0.01776082148099517
0.026092392152997523
0.049688256557351825
0.003533573017635922
-0.021116448639291505
0.012483385233960743
-0.02347779714153084
-0.04742597010299226
-0.024684680248564017
-0.0034962707656022184
0.028095912240706972
0.01494194170298942
0.004833258582532526
-0.04675456746565423
0.025535836992443203
0.009369560755195473
0.057236909381186966
-0.01944633061943417
-0.06662009515606124
-7.92585423284222e-05
-0.012291851253956489
-0.01168787996885446
0.014054039962117097
0.04534400953324668
0.07881389993734664
-0.008723273097328973
0.027258734794855844
0.01335157329892217
-0.07295989289844239
0.045508083539440664
0.03696298435970792
0.01731886765193149
-0.058055424169701934
-0.12290055396501696
0.07796301613278052
-0.012771465337822065
-0.026358314663035193
-0.034319296773712676
0.003388508395708515
-0.010145231297707207
0.052605038464659484
0.041731273487963
-0.11015694367078233
0.02662245508479343
-0.017541032262021153
-0.0006687924512936955
-0.027999439258448607
-0.10744357526204376
-0.05004864562732297
0.0028973661934182347
-0.02921231908100221
-0.0043702898581697335
0.010889050983552492
-0.06873714106594198
0.03578641646622597
0.04428881544870674
0.009601300990150169
0.03303726880115751
-0.051232941793369735
0.03886184595837747
0.05043426758684114
-0.020627815627315933
0.00011898943807858156
0.05470940074710101
-0.01306755641032496
-0.0543711741678669
0.010467623090827055
-0.006194928816291086
0.10041707709730306
0.1107161196297199
0.06181019306509649
0.06407791398962365
0.13651904593976333
0.4557012376593784
1.015037785204581
0.5123157978657
0.058709376864138185
0.04786837573386146
0.0035117081267888443
-0.03934201572271265
-0.05037299268552782
0.04286030323105533
0.02344416550294131
-0.02843455096588343
0.07782656825840233
-0.05656715630412734
-0.05908525823945743
-0.01949115681185797
0.01749322859190306
0.03229929210615812
-0.030307425397199463
-0.10397222297218843
-0.07266960000365244
0.013085942478676036
-0.08639719807101082
0.00431276227449235
0.03573621131410817
-0.1280290007106143
-0.03878992677607517
0.019454194580743496
0.011671980298407925
-0.029519976617795835
0.04602708843221069
-0.0302454342265214
0.017590824963387347
-0.024173413505823037
-0.10544914663237959
0.01881358573440764
-0.03513101861935249
-0.06889643627089741
0.09479407666308065
-0.008704952655713949
-0.017543018870066877
-0.0008562352893456507
0.04667818028214135
-0.04077414934105016
0.02950829544735973
-0.04322335497946146
-0.038446943698392744
0.04670967950059642
0.031126129239185715
-0.10963398412378154
0.04326473761421759
0.007286929822498208
0.04550035628766283
-0.01468839198759718
0.02832977658537349
0.0028804778111388677
0.025409787423137094
0.008279540889167067
0.011663414691732602
-0.11951517616843343
0.008711266072561395
0.02409874026063213
-0.07254534912326326
0.02203726782950762
0.05158418758036357
-0.04227151355946261
-0.012721662908769055
-0.051335853705169514
-0.025581359296645925
0.018732964527324144
-0.057652320655779
-0.043967714225557314
-0.0741824523309169
0.0691072302723789
-0.03506521351225644
-0.028019863940089824
-0.12227937276030472
0.026293067512015184
-0.03922246855543842
0.02813432213004127
0.06159541207782572
-0.12313858459122161
0.04513512210158447
0.016535259552439105
0.0709026812989048
-0.03579599431823659
0.07672407454014382
0.054043749458909676
0.011064052755419367
-0.057120142895631165
-0.011259697567879737
0.029838793812510978
-0.00448905721212327
-0.035069518525015525
0.06467784972460268
0.07254560174741341
-0.021628652200702533
-0.028557692932371405
0.04668795441856151
-0.028704041252733337
0.07524720917112832
-0.03266601939414541
-0.005796906902757434
0.014747211424417718
-0.12047628219213553
0.09520748198009055
-0.004166882934559497
0.01242437881246617
0.0833870415999477
0.03800631604604094
-0.022966563969623065
-0.004601738213139831
-0.03142900869103737
0.016154625523777607
0.006418443914454557
-0.017225566588557308
-0.08085370246411139
0.12613163305517383
-0.08564849889443024
-0.06981295721066881
-0.09786867280990624
-0.037029886265447585
0.08128623507882898
-0.02383152121681698
0.007554605003350461
-0.01866833827200236
-0.04012659089642126
-0.1260508445888494
0.008897377072780476
-0.05270011873213451
-0.02471195609810918
0.05024310880202291
-0.007179702297494688
-0.01860710254362902
0.056486861765769114
0.08948890384918423
-0.038105510863095965
0.03258931137005702
0.048701840614135274
0.06947110459256228
-0.0013861772929788904
0.01639180068752071
-0.11072038837774689
-0.012456161486119234
0.11540632544957284
-0.03479052616064823
0.01764554890370618
-0.050033626939827595
0.08165846288853318
-0.14821568187286743
0.025149568105420052
0.04273477688248083
-0.07249993752070308
0.02207251014962846
-0.017580481914172004
0.041673163838249726
-0.016730552632350036
0.14748906308329265
0.5154970817809688
1.0591677367521135
0.4829673976493013
0.1642448668656732
0.07097068407179978
-0.04976861043288653
-0.015443058688433549
0.05423173706594456
0.0373749177079394
0.053253721654521725
-0.04194968042049324
0.003185114287147052
0.015800275652670046
0.020224002370524356
0.02085273401330559
0.02832644483755945
0.005749817750369247
0.02664935388654274
-0.05070302579482954
0.017727122120411155
-0.010927868057560318
-0.02942066712824127
0.026589919858954404
0.073015905689982
-0.0832879726691731
0.0034196421286194316
0.09769142084490814
0.08229670522990577
0.0025314122285239444
-0.015621305405570239
0.003497455004423407
0.09531090952275238
-0.002156848469550267
-0.032113727635983934
-0.07027107883452283
0.03600816003107948
-0.0007004395005582795
0.03161011722332865
-0.013910425703826383
0.0026246577862557453
-0.13376296332910845
0.019329422422737583
0.05509977412760334
-0.06230056431712681
-0.08191711744692189
0.07807083430782678
-0.014962830805039474
-0.10750369693818657
-0.028177321345210928
-0.024974357841442994
-0.02533052196033905
-0.04073101010019478
0.036848968804110656
-0.016548521872849952
0.05742260935729759
-0.07251731480608761
-0.011584973195027104
-0.018853816641390984
-0.06580398536732748
0.009131438247250892
0.04127168560973496
-0.03539899259879007
0.037126967178837594
0.03207178523378273
0.0019778463214363672
-0.014963640605338044
-0.03395018213886314
0.03844600103562015
-0.020405319912905114
0.03185626583682278
0.03676575169866624
0.01644434211342702
0.06414460045505457
0.008877384375700846
0.006262939365059752
0.031259208090650324
-0.058640090452438315
-0.10288122987250173
0.11675592206528101
-0.010160521204081032
0.014461611955010476
0.02161798728191483
-0.024576937421129347
-0.05825911462790957
0.04306822160381085
-0.014509490469393939
0.16447972336862993
-0.04200496893617588
-0.015133981111009812
0.042441861882609275
-0.017066972489619452
-0.015927706039519617
-0.011898569610513773
-0.06482826285671595
-0.04343575776706219
-0.11383333204857385
0.010344135805252157
0.03750019872622045
0.018178652875074277
0.03369857631717432
-0.029562842115096195
0.041335714722112865
-0.01665351684508065
0.0442596335752323
-0.007269391926968071
-0.10784093483697088
0.04419902310088965
-0.007258150928475248
0.04813144508410952
0.001702549296414911
-0.038548196096176095
-0.0821561052743234
0.02410699155638933
0.08120715169846338
0.03385924033241696
-0.019362040455962622
-0.0003883635517202238
-0.0033305309532315943
-0.09578461163038875
-0.08724089233830401
-0.0074874967237653885
0.06271047086170695
0.04690776258216459
0.007076987671393999
0.015684981343934087
-0.01930354063084934
-0.025822018562530143
0.05258256772308541
0.006042923894914604
-0.03626115260317473
0.023656090538800016
-0.0057831612506656785
-0.0864651085372461
-0.023801037972409737
-0.00016325346368474918
0.027538152540326155
-0.0079778641338806
-0.004015443103279451
-0.03614749256985091
-0.09598995561683661
0.06569100515650828
0.04202337860008914
0.03501602815552287
-0.02249425214381262
-0.012214953973783162
0.04636874398075106
-0.0666933868398694
0.0020731153686201933
0.0996708218765069
0.061383089845354434
0.044253442338286396
0.08635958332521637
0.02853431342406343
0.001974821080094939
-0.08628760505373946
-0.016666104773288712
0.5560811875466516
1.1093152128560655
0.4938142146543826
0.13253966815546256
-0.03293400216992334
0.0085387588955198
0.013459242250015341
-0.05448726401016657
0.0033166381044209894
0.033756505521840056
0.07515549115888273
0.05829590220843758
0.03989501511188032
0.1220888898232873
0.07276885662725661
-0.03463416122560497
-0.03273042477789238
0.012678051881251599
-0.042878464599238574
0.0377861741953832
-0.0626255683786734
0.026200764095644202
0.07675126356503653
-0.02718834831152104
0.031628447166338856
-0.03753833244155849
-0.1296603796645305
-0.07915129660250675
0.01846585582357774
-0.03957440905040757
0.0012681316897623148
-0.030655947967925132
0.07014819285722163
0.03735643160113095
-0.01291897362380099
0.034227573585566884
0.08737729585487977
-0.045197527665473775
0.02027515970211067
0.04109344928153953
-0.02082202154136502
-0.030804123285680992
0.03038623479702403
-0.03352862292945319
-0.027375302170885258
0.005468025753446029
-0.02422814036840088
-0.004865646702670675
0.019030718232131663
0.029906384347231238
0.05072295306784328
-0.037928314964389566
0.021810925689226573
-0.11668552076051296
-0.03842933876544044
0.009448143385156815
0.045310732192675424
0.056832536681042246
0.03747588589240562
-0.0006190010559757727
0.015335337984416967
0.032739107476609235
0.02046431116237803
-0.0013912697237395992
0.05732132316376851
-0.01583617586381869
0.020472692367608673
0.02586833876172826
-0.06791903745028942
0.015491404172578833
0.0988244454911913
0.019535127997353623
-0.019486862956347863
0.07218040075377957
-0.03373894825672901
0.06525340529158062
0.004724850635987661
-0.0445857571641344
0.04885290839912157
-0.0368106231504866
0.15577226656592216
0.04951006843518446
-0.05010799659570752
-0.09945461627724193
-0.011271756591240405
-0.033109546267747335
0.04630286051022731
0.012672240088031791
-0.0023126140548705523
0.012623178605452718
-0.012790582264249097
0.0338654609755031
0.018523519311004526
0.007885855881896916
-0.02886300482133175
0.01923345900653421
0.024433345303831594
0.07989479977334066
-0.009342835698195901
0.038516245992481074
0.03984299873636515
0.022378307300757544
-0.036401240967269065
0.06555806095114813
0.010053563954635372
-0.04204867473100932
0.04489604373350861
-0.010327721041377757
-0.005813594721865508
-0.07870821794149725
0.07477054638721635
0.02583365540325537
-0.015049839047210327
0.0765807828716776
-0.004125963784698568
0.047212378967892266
0.10769827711493435
-0.03376852355633145
0.03797637484659978
0.07534797663587262
-0.01783665002875104
-0.02419187854031097
0.02707879476240801
6.580429239467304e-05
0.04553755050412719
-0.05845045220205665
0.03145183373044442
0.06803113357105622
0.021868874181110068
-0.060319001493724246
-0.014810555469924425
0.120019064834878
-0.15586879745639903
0.0023691208230580928
0.00973631652049191
-0.025240507848321544
-0.042874175911140636
0.009778700657350672
-0.0415643469979049
0.0023793735989481746
-0.1477907403797431
-0.08027513113055554
-0.04326727220335149
-0.0615674448947745
-0.0263991931796555
-0.004787502909289042
-0.07601267167795542
0.0006351197103767566
-0.006396790716725869
-0.013878779696560387
-0.0029954748375775313
0.010588376625565778
0.07613995228753567
0.49777959533547944
0.988504265435129
0.49428733072764686
0.05678323189064161
0.08561130493680977
-0.008294088737124837
-0.017725690087885725
0.021905044495185103
-0.007668986893240324
0.047514991250620864
0.04663804610645913
0.056515600886508637
-0.05100356704554161
0.15393564677370788
0.0036748553949675585
-0.09342382327155299
-0.05317387472415075
0.10282786016599313
-0.01904253184186049
-0.10518397600477142
-0.01602775809624432
-0.03319785250610637
0.08700275447592543
0.04068054442676665
0.0018793138720940763
0.03374574825394654
-0.020918252574399027
-0.0472615245123037
0.10912914543976143
-0.03429607565025026
-0.04666693821060153
0.03300715216217713
-0.031462394449309136
0.064489348905933
0.006697096281871141
-0.08269232916280134
0.015452887447588676
-0.021005600941312624
-0.033677572505307105
-0.09307228409811816
0.09554587182381968
-0.03855509264412599
0.11146005147685961
0.006874044572725408
0.00837865042290025
0.06006610017372125
0.02398863609745304
-0.0009688448729769025
0.00593437767897815
0.08888026499821779
0.011943130775570111
-0.0194877505436121
-0.03457067303457869
0.05134372750118428
-0.06833806062193225
-0.10532304956389288
-0.09577080184140166
-0.002336441078710082
-0.03941107200413088
-0.029879385872104033
0.026496502368565895
0.04771938014366994
-0.02277490506029468
0.039105355370943715
-0.02557697697166198
-0.14074762344284616
0.09626271672682778
-0.06749708458942288
0.002882483081783814
-0.05918185922230057
0.040336918538304525
-0.033849153538218955
0.009759810977357399
-0.026568485665701948
-0.009442087448055749
0.011402574140843903
-0.006626561679413834
-0.01986454642427152
0.06257530608211427
-0.018182822880768886
0.09771468332900006
-0.003893109333138646
-0.035781047711231785
-0.04781347526282084
0.04199607541581817
-0.0208750401909519
-0.02713986380281963
0.07215199248073399
-0.05089339038183195
-0.050856952117370596
0.04510219492553173
0.11955790515955474
-0.03285725073239743
-0.004240588449748262
0.10840848568019575
0.0008742531548532822
-0.01649560760068312
-0.004633138903243245
-0.09921376037028615
-0.004213715939938093
0.05967777362542176
-0.016962712320504163
0.005488169432992126
-0.06779341355270263
-0.023898157669531656
-0.001213161762508103
0.04637088963137026
0.0023701947808438687
-0.06829433808593412
-0.010012741532666953
-0.014899675143481523
0.013127853564846845
0.00916861046620261
0.050889127105753974
0.061194860364658016
-0.07704186070889828
-0.01181949974816965
0.005795379494634826
0.026563455541804667
0.10139555786965482
-0.023627586274027872
-0.0007666314871794563
0.00984390963470766
-0.07005422620919675
0.0971140809119152
0.0368054214948133
-0.018946725633780748
0.00045702265230678223
0.004159767016836908
0.054253821523893
-0.04862076029656654
-0.10309937887212886
-0.010837848443735231
0.017584439430418316
0.0257371262516243
0.05973562794254014
-0.06458243618863131
0.049109810405833496
0.04593107480214048
0.0007164134394469297
0.0022253633064849778
0.006587728322493253
0.003372410772212338
0.11092589087420127
0.043062495513779775
-0.04999634370573262
0.024389391110377228
-0.004092537397168997
0.030076156913092508
0.05804003343508382
-0.025922946674170284
-0.004780959273000113
0.04634136257277561
0.06847523623544509
0.052181805296044714
-0.011516981090818544
0.0944038840365261
-0.07759846339276956
0.08359630766912185
0.02739157606344621
-0.06343816956391478
0.15084668192851264
0.4922990942005331
1.0172256185125448
0.4353322599045979
0.042462848408150344
0.04042352428585108
0.01583203624297672
0.07765664962716663
0.03227747248471193
0.020560484930618777
0.016311997959981953
0.06663762838341333
-0.05912143765725894
-0.04526078995961178
0.06302405067267675
0.05286374079572619
0.00687841078673957
-0.08028540627407271
-0.029414498381368344
0.06206038737613212
0.03852219408918881
-0.005271422168494951
-0.04734736130929948
0.023970412678797955
-0.04574874048025216
0.006827784977569171
-0.009163564027737423
0.02182226367111753
0.02748018750731279
0.010461710455153199
-0.00258648074080892
0.11220278641996143
-0.04149680610296775
-0.010653157612304613
0.023031463577889294
-0.0522889029368834
-0.06563325143815582
-0.02734795019880797
0.04536558071516572
-0.02241896092175724
-0.08553902610748448
-0.0014145118118382358
-0.05962382222737744
-0.027513590825069014
-0.00864945652002744
0.06691057868008576
0.004678325065808315
0.062032357970417486
-0.013267688710711918
0.0028226673037006073
-0.0736148829786103
0.04378849133743982
0.006600166158357904
-0.04863017933969044
0.00549163517874696
-0.022592766926724517
0.0872917720399547
0.013552264280685861
0.09793194651954089
-0.04632193487100625
-0.07022225118662104
-0.032574039729699814
-0.051340890224341275
0.04964554531736775
-0.024939314390742665
-0.0033411836245337994
0.028663761821757106
0.0011300756201315632
-0.07911302937585814
0.0073512447185035724
0.022354868810807976
0.015219469911725209
-0.037504857254000955
-0.0386635008659367
-0.07612888452765433
-0.07839934247732783
-0.004659703088203153
-0.03569029032674083
0.0010357587023474253
-0.07253766437949259
0.061495336397816375
0.02086460260292447
-0.031029342168926357
-0.028787697776118087
0.05983815082711494
0.06132836152977749
-0.06844673727415745
0.014915035472410125
0.010084667727043192
-0.06187140764040005
-0.023978465685738238
0.021359420756813425
0.08497302022460439
-0.038829974840378374
-0.03485508182340432
0.053317115732760045
-0.002616837099764313
0.0008848449813053001
0.03513102369859062
0.00043157309358189834
-0.012901479370529682
0.0038226423131322187
-0.03003964315939291
-0.09892320616593618
-0.0934495045406907
0.03320448122780533
-0.03830080692832852
0.11855217032756521
-0.013671792152529103
0.06678237573836202
-0.04761766027690226
-0.06578420299034975
-0.04441124624678641
0.008932208046926555
-0.023443854878072407
-0.007378157982164239
-0.047818938197463204
0.0029446937474870206
0.015291692050083945
-0.03810736978248897
0.016670599861627056
0.05337828238211548
0.039792049296212245
0.04885302917018239
0.02701168177927031
0.07012088811409892
-0.06948840402943256
-0.03432782737220912
0.0013969851515722009
0.042219020225395136
0.006913646779570128
-0.06878945741948335
-0.0016500635937500608
-0.08885050676919401
-0.0659438622243153
0.030113058117664557
0.06228825530884169
0.03536678163155929
-0.039618272961707765
0.0398581403825516
0.03472050878943332
-0.001031122664372261
-0.07391647360817681
0.04849105055065279
0.000847160261046691
-0.02599875382085813
0.05962629971219553
0.09564392729426861
-0.056484929041614555
0.059912452659858534
0.05631535197009953
-0.12599112901979284
0.03620057092112043
-0.04369386813169034
0.02655805581343137
0.04158926327732996
0.5285549276870473
1.008725738151043
0.5078063795686579
0.14678117718783215
0.0329428972738046
0.03448450167810557
0.030457239963310637
-0.021877315328277105
-0.04437426663011417
-0.004315540710152743
-0.019408775108616536
0.005046358330080377
-0.01625338169809572
0.026033347968078366
-0.02817861367316772
0.06766640886772457
-0.028491648226074775
-0.08663245402343021
-0.04148658598831992
0.05298451822247479
0.030393706495574286
-0.0027315536429661684
0.018337974524778023
-0.004754310178284642
0.033682170672249864
0.0624235291625008
-0.04594476335325038
-0.022643320491754784
0.002561002101639676
-0.06852639854877328
-0.017207840258126415
-0.03345777466953833
-0.028548996603652455
-0.06584184322205212
0.023373889255136174
0.05338635874416114
-0.03200443023423263
-0.012294543014093719
0.01916030605879732
-0.0074091996895594625
0.038816505019514336
0.05117308059961977
0.005031810207559772
-0.028865330854222063
0.027756938468558364
0.014552548970426635
-0.012521450766727449
0.06472599828355827
-0.030222140878754713
0.031348555738608334
0.012028451747262841
-0.03105548338189293
0.0029570143372556596
0.021117677285294303
-0.016712014434479817
0.053040670202358864
-0.011170784978061284
-0.026023013583257315
0.047501999500578984
-0.10287963054209402
-0.1247475419609327
-0.024933751148333586
-0.04761852601573446
-0.03559334971029408
0.05389167868840579
0.021243696918258045
-0.010151519319560242
0.08749190645528145
-0.034413563221986486
0.03306174857247509
0.06462879118649127
-0.0449231746823103
0.019619226643720393
0.014440571999869731
0.0067583529943108485
-0.07092979256691699
0.04457205875654909
0.011745259105352077
0.056175024768758075
-0.01448625935078721
0.04661589668224765
-0.02802804222907711
-0.0557777319387339
-0.023326583352275363
-0.002760072636309212
0.09681937154770909
0.0034340825240624234
0.037579814092375846
-0.013872024332536257
-0.012362136336106135
0.0031254300758055396
0.008959705002383836
-0.03463109109803799
0.06531186572814142
0.02885728604545707
0.0307826143954486
0.004978422792971543
0.030098200800487748
-0.052655614696600274
-0.044840928912152134
0.0007787418980246031
0.009486912659053642
0.029305449403692032
0.07255872109772396
-0.06069067812114174
0.01479961386145535
0.03409058249802223
0.01584246087237285
0.008004663891251757
-0.002781751134562772
-0.022259457647227518
-0.004286627061117968
-0.06584308017245749
0.019447529122293014
-0.034334952950614214
0.03666778785684141
-0.11080279568855354
0.04662565891744325
0.09019135070508855
-0.004176778405463813
0.024891131604507594
-0.014629583717682979
-0.011392769208247245
0.08261562155673452
0.03586685105600373
0.03871443248254455
-0.042646445395249304
0.054674132441107685
-0.020281785205626547
0.010676285043373283
0.060857873598141314
0.059184149278049686
-0.005694460109357039
0.007321269120068036
-0.008542011053850251
-0.013332911333662038
-0.03151630196482736
0.03788745785750686
0.0694112322871687
0.033637613649808315
-0.08791730100931906
0.007760490216014206
0.002612384460783601
-0.05407031989211645
-0.0011571276302910786
0.031334504356116975
0.004885710144369768
-0.08749848213513756
0.022226496688019008
0.027820903174271206
-0.025244107555583074
0.0416498442665857
-0.06837187444477262
-0.058124360498609175
-0.016404413163135494
0.06658369034693493
-0.1080215401692104
0.09150124862691963
0.463446910628407
0.9936822064071953
0.4865387882507383
0.07283819822565357
0.03735339078023906
-0.11464330816160143
-0.02902528893878545
0.05031575406221533
0.10252001112804524
0.059936294648024815
0.04595507424755832
-0.04646381288935681
0.012653020494326548
0.05822256895779857
-0.018606206798329594
0.0014007277539381286
-0.00573852658873673
0.03358898612782793
0.015267891928127698
-0.05810958428433273
0.05934204228071141
0.03774309034856855
0.04644140481529922
0.0024148041201398156
-0.07687333750171349
0.03507205663115518
-0.0487239365688259
-0.03944067052195036
-0.07278719534025406
-0.06723379090985608
0.06046568613107559
0.13094227534154299
0.005029304946789978
-0.07174339724242458
0.01841144020272106
0.0020190865405024733
-0.04474271356749404
0.045874718917773186
0.0457205130762153
0.014941438725513052
0.12089079301415924
0.005223990135585681
-0.00310849479074899
-0.0012150792066053702
0.0003466709824094282
0.08531268590804356
-0.03462405410836502
0.017049948489524968
-0.02455687678887275
0.027760136265290725
0.05298732058786301
0.004440980176380207
-0.03265605120624517
-0.0649999197480353
-0.0335136320077583
-0.03518182181410675
0.018254409060423676
-0.003837988443995484
0.012575638099938384
0.035068684078229294
-0.029350016932997908
0.0020316351291288
0.04775419756116092
0.020711697360431835
-0.033829204517379335
0.09411085908383454
-0.036066008304925144
0.06442140336010606
0.040604762715744334
-0.012539589887155499
0.009564337861668683
-0.0010429156113189527
0.03618285984116375
-0.016797880579410465
0.016503725594843113
0.032681438168516354
-0.0962322679394653
-0.023429303953502928
0.04641482292130525
-0.0009996306946027168
0.07515438132431959
-0.12688510282457702
0.02510808224270132
-0.13027903158855766
0.02160864692339246
0.013607650109256601
0.05965570175339457
-0.011350754296804988
-0.026883191024322264
0.04181909717339085
-0.09621394904926062
0.04116287193796159
-0.11838698632851295
-0.026974036009768654
-0.0167939264741897
0.01625391412288102
-0.04509127815766896
0.03990356352260102
0.05872982684749872
-0.03913177489282244
-0.036843605317595535
-0.036665350807269306
-0.010029415085624318
0.04217180660414976
0.04894509510940068
-0.019737151037574552
0.033440202916007765
-0.03207836085318279
-0.13210406358487828
-0.011828009349256437
-0.0867052778953204
0.01993332937421765
-0.013673279433632547
0.04522647694831697
0.025193686666756678
0.07485047359833671
-0.01395134755004168
0.09716523534785582
-0.0741740955789461
0.02426429629813741
0.07046525393402407
-0.013412039088055466
-0.05565577838054458
0.0781954380028931
-0.01900506027327019
0.016262002067932026
0.03578384715040305
-0.041936282750672293
-0.038345188697635306
0.005230117234999818
-0.008960982722992552
-0.016005463980915867
0.028619539295930137
0.017681507447781332
0.020537570781072018
-0.02778011282551053
0.030637535908596483
0.030164108908503545
0.02381971113952411
-0.011832531182107319
0.03279271465544816
-0.11888612902353753
0.01777206181396644
-0.09088812679779729
0.05821883293534394
-0.009211295953820904
-0.03185637896867644
0.012394271574183277
0.05226918381017374
-0.03506276242720049
0.08052347668766356
0.046256168218730166
0.013362206877129093
0.07121696702289798
0.5030347593301431
1.0040668252946738
0.471397808834093
0.025185061995840516
-0.010413302698491268
-0.07955521921310235
-0.0030556080999987302
0.000909251415552157
-0.016407746529330886
-0.022238916457978788
0.032674083061445126
0.010745215302070383
0.08923055790775647
-0.00964027146895857
0.05724034568189301
0.0035865348225011316
-0.051875881817382175
0.12814542340624918
-0.010342623614914684
-0.022210088268721857
0.0516184176463376
0.007591202129335612
-0.005193896090854763
-0.1463684748257501
-0.08029139692756826
-0.0833138599635431
0.027908558259838415
-0.014659603509554461
-0.025875826613641822
-0.12682272824548077
0.031467711635611316
-0.01681692152450845
-0.007388435487335728
0.052585322274795655
-0.048937758599042966
0.1239336955634049
-0.027389451342909134
0.014621650023487831
-0.021741913446183578
-0.04800583722217343
0.014203298004504612
-0.03279547736550738
0.06533743207685865
-0.054709706340689425
0.014987952699606564
0.040201221319433385
-0.06805520720363407
-0.03373695296336945
-0.07230111623861951
0.02031370412490259
-0.008570418478661461
-0.09303804361014704
-0.0014215311344579762
0.028169009746528167
-0.0025884561086755107
0.07747963598890123
0.04364878758215453
0.0014526810238568424
-0.04412946571690041
0.06170385877127336
-0.07663956383845691
0.044022516472016514
0.005890434247071115
0.018863834090817308
0.0030533637458528104
0.04398960521829445
0.026687768857560697
-0.04479670579924841
-0.033932147715365894
0.010071608436461967
0.04090631426300797
-0.07064401239517273
-0.026400584417780384
0.08996954232939217
0.04237441377974382
-0.12472880253338259
0.013742966380115702
-0.05173086221603684
0.016691491899588504
0.015517429952397575
-0.01238413476543878
-0.03457418607993758
-0.00631486549910459
-0.023696488314735382
0.05409671135902111
0.03955573664514986
0.05424195262060175
0.03351861778105978
0.004121841272383491
-0.002643764200018175
-0.08618264881061603
0.0218334490647133
0.0030375286477830276
-0.022527556777863778
-0.04477163323735456
-0.08564141081174215
-0.017252164836898436
0.07102518812150188
-0.03893716476166176
0.026677558363555138
0.053473117677190034
-0.0707519633952461
-0.10616874249433071
0.00224864727474255
0.02187639118148014
-0.005017443222108232
-0.015966487365537668
-0.04419750021514185
0.07821472950759988
0.024027199994810337
0.07674745305229552
-0.0290950705894937
0.05178590566040334
-0.026079568013222622
0.010372868327259671
0.03462905796251859
0.09431321106333339
-0.0025847336102012126
-0.010044497911986736
-0.008101935175756237
-0.0856920186076877
0.004196866294312883
0.09115040518139012
-0.021423370495120955
0.09292710880906818
-0.0176265515001237
0.0009372551662860541
-0.0031026875847302918
-0.013109992348901443
-0.0039539498849720375
0.0176665374715584
-0.04023861238536647
-0.16989989328510124
-0.03544660595788611
0.0499583538852783
0.005899879796108491
0.013247357834637841
0.028651602614487955
-0.008532416044795866
-0.010183644884965853
0.02081916123499676
-0.05208787151014108
0.01279296648764266
-0.08219429742987948
-0.0800664283746165
-0.054313649919244714
-0.01767011982794276
0.03349047534470053
0.043839073403386476
0.050852743084534024
-0.0873688070024276
-0.11253377247668667
0.00023440989504563143
0.017701129628845007
0.006412740213243448
0.13012944687666728
0.5141388588395374
0.9704712767279972
0.5191596030039393
0.15070589180269217
0.0366389751788556
0.05627428110708976
0.028028346436507253
0.05526223175090646
-0.058665128822400284
0.05294418134964771
-0.043514459721766374
0.06652987893901623
0.0020421133271126446
-0.0030108525289538977
-0.017244585938058356
-0.021403503031849222
-0.029710921580020797
-0.005612317713628431
-0.04549831958787026
-0.04514160968444815
0.021795697171314216
-0.03822100015125052
0.03973378480328747
0.0816135736966827
0.04422615289511722
-0.007827713468858924
0.04830071895154606
0.018181506824597352
-0.11047417121306723
-0.0213294496569044
0.04184278910007652
-0.024377485404132832
-0.025588846252659354
-0.01952375747200518
0.020448886135834628
0.049146950225451645
-0.04287051766511143
-0.07963695198114863
-0.02083692610370536
-0.019067108801979163
-0.008013690656199493
0.07900847995001956
-0.0036702592502947055
0.03588127201801063
-0.07945425116376052
0.025373140356908054
-0.13437356822339533
0.042187676060999005
0.032307589993901924
-0.053375770345310714
0.08808960890046989
0.07737095588873343
0.0074136168719616995
-0.045791962952289066
0.045222010402828035
-0.02252226123794225
-0.012361470398915879
0.0224086412130185
0.04367748702240729
-0.019777729686916677
-0.10495258680475346
-0.05387631241675857
-0.0560206287187077
0.0037740848648885657
0.020084020961186458
-0.010608112018886739
-0.0939962361319191
-0.0043212323628741296
0.021651409590346005
-0.04190302354711446
0.017889495200340336
-0.1420890320091244
-0.003120437482504223
0.0007928295099690875
-0.016129950218611116
0.015403474840464008
-0.028192363195459466
0.003341676733287037
0.038914482970405555
0.0973392669428713
-0.029886632610942605
-0.0059141825984389265
-0.01288005611885542
0.03402020591815029
0.055836022161461656
-0.025169437802232027
0.06644463771098122
0.06067385780447554
0.056642300756617664
0.02497238296693079
0.05871252085013983
0.05540792916214707
-0.1375669099124198
0.021652958830615604
0.033721099667931735
-0.002818000234759985
0.038711284131736655
-0.02320539410248909
0.06559323629540798
0.04019637073053258
-0.0018610466458724596
-0.060128280289223346
0.009993202543542256
0.10998160475475216
-0.023975661135023602
0.009336803655140244
0.017067097408376464
0.06350703106560728
0.03944289303594702
0.008406632886414172
-0.01121062631564794
-0.01041590911765386
0.04698738837346599
-0.03988585271910827
0.08587282064719329
-0.016205884750485948
0.001361438117175138
0.05850909284256187
-0.035455933965711985
-0.09307794271325874
-0.0098157586850899
-0.018474798444681532
0.03326768436917522
0.0017956807600653575
0.05892747610770404
0.0478637708970645
0.0027247283039746537
0.028511134044496313
0.04646174085928372
0.007235604098569992
-0.035938853526263005
-0.10551935659004011
-0.0015979191645797532
0.02456618450686857
-0.0692541182149156
-0.09422906921891613
0.04431739891119413
-0.01656796971636008
-0.01535494062770218
-0.04507603823194736
0.0035037247253466154
-0.06166366524522923
-0.01802635046601427
0.017482387350413336
0.0276905208707085
-0.011487700735540441
0.017335561415509525
0.07332769715899902
-0.07665929052211934
-0.03020808573798204
-0.08734352562407172
-0.009681123463442087
-0.06305910321124363
-0.022857989769684162
0.04351123077549988
-0.05926174444474015
0.046546765201801024
-0.07124440479825676
-0.023044008177852578
0.01009363326830972
-0.03733471882588601
0.1318328327227503
0.5020376338651601
0.9973403972099871
0.48879389337154006
-0.05052598023527613
-0.11413754432271853
-0.016592888527240234
-0.014576198037095351
0.02102210479826555
0.025745927158509943
-0.011969891788439227
-0.09219565175541972
0.042579456856053625
-0.01561941049276889
0.010966576971324443
0.0866323552345154
-0.06445621747780907
0.0002185647458346758
-0.0890554924021255
0.0001552086294615494
0.02037921140166193
0.014669187195058914
0.008407356360803158
-0.03903227970866602
0.11160703875431033
-0.08931606275853432
-0.005465711585808453
0.0351239404041633
0.000661609960422332
-0.016511637970934828
0.05886237063080271
-0.020421287552914294
0.019321858652351746
0.045169636377448134
-0.05659468886799651
0.04144295937100748
-0.05375943728264109
-0.006156331911762572
0.14798253256593774
0.027902456631717854
-0.003324927761914136
-0.06398408692315578
0.009172774608678788
-0.00017865656265476
0.04767078741579679
0.03242459782743326
0.05269564622195402
0.08419853322245424
-0.020499221159420572
-0.019387941481847262
0.04781957806933357
-0.05581427530079857
0.07918291622450195
-0.06644557155437504
0.025124790814296305
-0.014902886820146899
-0.002697678129152229
0.08068556678188069
0.02858178491317307
-0.01037933802704331
-0.024462979079342858
0.033520810561921764
0.034416686253732405
0.028511268285112714
-0.04275933064914908
-0.0016150791126703233
-0.05886973572410179
-0.009676136839766222
0.08111704796734286
0.03995947389787653
-0.014324347901332662
0.06857234325581503
-0.0099480041634925
0.04640196397091994
-0.036726323368495364
0.03720225975175883
-0.07181667154321439
-0.041921160543708015
0.06303645781241438
-0.008475839189705549
0.0469100593744651
0.05744282929330402
-0.0341245444308279
0.030987158205292516
-0.040086102470105286
-0.07892322225704984
0.03768165897691316
-0.038322356235282705
0.006594688788694063
-0.027437478349879692
0.029221470534058727
-0.031287672851409654
-0.07118374716445101
-0.0013426299963444823
0.08046272946126871
-0.022754239789999728
0.007162321475012457
0.035267554404311625
-0.028274794107221543
0.025970254867823547
0.011781616107932285
0.0510445962750722
0.06952455151239331
0.0070323125496013356
-0.08973820670966029
0.01654001102353214
0.08028921846698027
-0.04616845484120047
0.019571026583131076
0.0025632928647142494
-0.039108444317281874
-0.0055854632821545885
0.0077850074892129185
-0.009205562011760425
0.0389950269984947
0.0224009919044674
0.0826331965746252
0.09868581407561805
0.03610708876406413
-0.01355122487780295
0.05664971504768568
-0.02265631279988647
0.023209999600092592
0.05074808105628769
-0.019600501112079227
0.009455091489363531
-0.01679025062588149
0.05073046228839598
0.08852183655886699
0.07326153676371654
0.022983100673753046
0.05455862809367821
0.10653293547452279
0.023845316923592652
0.012435516769390746
-0.04332000253756566
0.06224502927041792
0.0069030995569384565
-0.07651982187734176
0.02173403549761037
-0.02838622055391224
0.05527523226352974
-0.004811754919114771
-0.06004222796404858
-0.021781784421288152
0.03551102514068151
-0.012121535980969622
-0.027627002512048072
0.02538022448566403
0.007180611607881086
0.014572898930421475
0.01643528840404505
0.034718762211020576
0.018525047943433386
0.07643423724642502
0.4278169559726352
1.0200606646168924
0.49917173526895897
0.06245259577786944
0.009233017024822732
0.03364401543567009
0.034011234889216695
-0.03413191472286656
-0.019369666037272165
0.005057431833023405
-0.08108284498881364
0.017755330806430384
0.06584557871278961
-0.0049634206871792316
0.12387451301856396
-0.008701538600116304
-0.010922114389879466
-0.014310687793855026
-0.08209501512117515
-0.02920988914526873
-0.04896888524275239
0.09841538975870573
-0.03439458138906432
-0.0924123276701454
0.011479710517638242
0.008814505904915814
-0.004176124849629187
-0.007654736485823823
-0.05526216022749078
0.03163333568599768
0.021545547280963393
0.032664302416273806
0.02859566230059642
0.06692166670153711
-0.06737391998819377
-0.011987843395898312
-0.0328317066621071
0.0625571214886924
-0.029929060254231504
-0.0038640407037567807
0.03377200429609677
0.0346079848309014
-0.07449910900003671
0.04661885656436974
0.02625866385319169
-0.09959229482524895
-0.024672619566280515
0.01898500517159467
0.010239142347527807
-0.03079349123128211
0.01417234640584039
0.04522154223580112
0.0676578262715195
0.00628149570905502
-0.09865940054501983
-0.026068710352089287
-0.06677677147337584
0.012814251433045452
-0.06869559384963936
0.03685731646862556
0.007556926819323787
0.0638524107490489
0.02653073038113357
0.03732256682021012
-0.004905104550020002
-0.003313840671830313
-0.08643936789048438
-0.056333269934836366
0.00015413814484596276
-0.00825054304106918
0.015039450292021854
0.007737404392985821
0.03580065349169156
0.06544296861853387
-0.10989253456173234
-0.05859175194558485
0.0021622183156681505
-0.06885120766322583
-0.10210651482853411
-0.01429856491774524
0.006770525021761714
0.11126531950443377
-0.008829372350450683
0.0760887998323816
0.006640069259816865
-0.013844459782611186
0.050188568518096
-0.09033387766109045
0.03213774120897966
-0.02640422795846059
0.10524991068317496
-0.09681773245653583
0.02776397559524632
0.10444128236027693
0.03731464844783692
-0.02124584169216696
0.038977035486969486
0.0032357188100879605
-0.016668165369828212
-0.06641654671360152
-0.009014153386729383
0.03322071341078553
-0.08833514127174225
0.042089134405746215
-0.04306568365038907
0.04050199029093582
-0.06025350552069108
0.10819900840336534
-0.03743217608725732
0.061482969696552384
0.04325986437813291
0.07658379928243092
-0.020088775074516577
-0.023440589294476802
-0.00042559757475562113
-0.04983217626873877
-0.017541073556172595
-0.03220754937370634
-0.06566756791255884
0.11961060447646366
0.036830052978209134
0.042234890445550406
-0.06115893375528301
0.038180351882838554
0.012916740251701399
-0.001986236464991903
-0.001757905231213669
0.0114879108769376
-0.03221198422310936
0.02429722855000514
0.014486496101906363
0.01822636331993577
-0.060730595747264526
0.049159828340040006
0.06577902073389832
-0.04386713199412955
0.034233977524161935
-0.03110541870046403
0.06000417572566602
-0.06199848895016006
0.055327442268446915
-0.11019064211809503
-0.02965534359156956
-0.06635611729312889
-0.07370537354555905
-0.047946973395435515
0.05193511729081745
0.06956108865430599
0.09906021680242082
0.014912844324173932
0.03900297818517759
0.002191730988367694
0.009315142770482818
0.014039952834195367
-0.07929569100357814
0.09906360275274494
0.4788458091031717
0.9641122614384886
0.48497887253209265
0.17515147530320954
0.02453359350424599
-0.0029096031761711126
0.09355044102722326
-0.0206989093244385
0.010968529137150476
-0.0005877850069217093
0.09603025812444968
0.025313448727457468
0.012324446235096745
-0.048644708910088846
0.07056870092368532
0.04994148151239788
0.02469064275145203
0.03977663931778899
0.07534025846389618
-0.025960374204522366
0.11015991834871149
0.01276315629450455
-0.020764503397521193
0.020202666096528436
0.01747693330327137
-0.05044163206458409
-0.05968863595692499
0.0586874306702741
0.0024152801239315596
0.017766758890333325
-0.10011705637421327
0.14952950488770703
-0.05214519290942287
0.06092291079315069
-0.01838737390065529
-0.002136613769313599
-0.000414750314976328
0.08607216063855982
-0.005496593320205664
-0.05368711590618452
0.034236099543760466
0.07188360656510802
0.04453431100324997
-0.029316896799822613
-0.005959869896337158
0.015137297078676455
0.04979887658918114
0.05284156406612789
0.010052459595491755
-0.028632772188474865
0.03768366962369788
0.008417396287836198
-0.07244898972391231
0.024268019040971717
0.0400028475812941
0.00016405933236020377
0.04165437655727743
0.0323374990132276
-0.04438182452664799
0.02979020275846549
-0.037456286690009194
0.03995303332584768
0.02152245554352246
-0.01270813255531508
-0.05810799880503136
-0.10878347503417218
-0.03869837454710053
-0.1105356877209768
0.011496615366499652
0.11088786859428966
-0.03147982008800724
0.01602973391645797
0.03595478817401224
0.07641189171999231
0.01658267526472522
0.040852608635787525
0.05366487173524459
-0.06558517402503015
0.09863247388689393
0.015473936557794494
0.04235744709347718
0.12996517320280648
-0.026494559558914735
-0.014300278107536141
-0.03772722087326952
-0.035192239526047886
0.09428419477338573
0.013088790743489637
0.025408297815299838
0.0016357262898928412
-0.026816391858009127
-0.018642127947756406
-0.034276040258218184
0.017029186616992147
0.02681976881087912
-0.03964248987188307
-0.007683797541756305
0.019905369278722693
-0.08241582391107982
0.07072648897106908
0.026842846249908292
0.030096190539192415
0.10602271044332985
-0.004666641102595895
0.034867911677668055
0.04137367002918954
0.04232006054361644
-0.00761397974258182
0.018327984457984135
0.015419752564918295
-0.06359171958063708
0.048145926059111346
-0.012769944443475659
-0.021536547389297084
-0.06585211779051926
0.015443471585603148
-0.0747158884994179
-0.06347190244070655
-0.007478234983406469
0.023040770900628067
-0.04892744644118352
-0.037665866350675745
-0.021768886499942082
0.0935589944175071
0.0901179068593561
0.05180668561689759
-0.013365670592376581
0.0828313890588001
-0.09658882075522603
-0.020050021584057325
-0.01599541825394083
-0.036608988726793135
-0.07820556444416202
-0.047710768857636116
-0.05630936957012719
-0.010906939134446573
-0.04906424827523554
0.047298406296751694
-0.014473684990798145
-0.04108069153936258
-0.07361357198981626
0.09554920370399589
0.01593970587596787
-0.09764238780234927
0.006855900399833945
0.08024566712492161
-0.0340334309585952
-0.05154984519811029
0.011038374730817709
0.025810966762697507
-0.033873235970254274
0.14341245497499847
-0.06885544714826018
-0.022865500940662663
-0.0290230966705414
0.021445711079883557
0.02150706913422887
0.10046855507986793
0.5094807528164919
1.0141163865812874
0.46777355457491
0.07638199757188323
-0.0019855148187390348
-0.010860934336298757
0.04616046923523876
0.04916490410939344
0.02880899662572861
0.10595257686544775
0.03611410642868961
-0.04615226263231566
0.002078847883447086
-0.07951357694958873
-0.09476352002152727
-0.0751963528658919
0.01764276407888164
-0.07425966002605798
-0.19149782177827998
-0.0038586037665522435
0.020656653604732886
-0.002710273613326972
-0.010848129209621735
0.019261770324410597
-0.06779862366606801
0.03178235672567289
0.016758688629501764
0.03619842323477459
0.03483449095459446
-0.053298141977660564
-0.030592988966092683
-0.03205661645917989
-0.06726924728178373
0.04234734123813642
0.027913193452698992
-0.0750132910881071
-0.1105165636307315
0.004513405927848495
0.11533248690168144
-0.007947176238709143
-0.019354924705976433
0.006651330990621942
-0.13251582603231193
-0.004314773175411266
0.0879562942568789
0.027046194697391425
-0.02406463674354241
-0.03378598505250326
-0.058381800675025
0.02029396457947474
-0.030791217758475004
0.04099649217402809
0.02852686369788639
0.010947181389730259
0.07135071045918909
0.033014709218759083
0.12586021116746643
-0.08770287577616588
0.043210754309039666
0.046212498637524996
0.04636981712418988
0.003747406569311013
0.0632399699553856
-0.026677539564796012
-0.05347359803466409
0.044553349632236595
0.015024364342470398
0.07319355709318104
0.05639468726430888
0.003059475769205585
-0.018390701778594653
-0.03343192596514904
0.019622878096146667
0.010090446163618445
-0.018562890083788326
0.10063222537108148
-0.009037982489532038
-0.06397205112407658
-0.0683577128781264
0.020423748195493724
0.0422730071909799
0.03900016450618363
-0.08428071750865829
0.07509099750651273
0.0476142002129509
0.01873143810379091
-0.01100331338303176
-0.026286655982398356
-0.09088665927497823
0.03098564846249265
-0.05494684273508896
0.050103322412152054
-0.008141135914133726
-0.0476515642886378
-0.03061253218044522
0.037813612386399895
0.00219702022366368
0.07138360496644562
-0.09335011568842846
0.05868492525372368
0.05686952331694636
0.02715419264530779
-0.007758851513808886
0.04062315826941218
-0.03783798097172667
-0.07452881614409723
-0.041250429705026244
-0.07655208567779805
-0.00025400860832433726
0.01751845476026635
-0.05191527789718749
-0.0866954968677304
-0.01898241945953887
0.03846860690323716
0.029341577683301243
0.019220821259047977
0.07914812458960699
0.007459761958922322
-0.003234857402829823
0.00023090160679250344
-0.07821018175573091
-0.03139850939572429
-0.07504539012069772
-0.02264836668327424
-0.11118921149447945
-0.007654723987537172
0.020637020719099505
-0.04113556400142064
-0.048913997557487564
-0.049292980526603476
0.052710861166129136
-0.03984328550397413
0.10624845912914578
-0.017637210628646077
-0.04391249924366291
0.03245877576220792
-0.04302129072161702
-0.05769428542848879
0.057889643676039784
-0.05252976087799797
-0.027268942064394966
0.11388318147689865
-0.03550392443012096
-4.1717073742912906e-05
0.005683442948630284
-0.10606982454091124
0.04179314580478377
0.002417297124211902
-0.032431267694323675
-0.0656347391369963
-0.05202734005825426
-0.07326985910533955
0.06316047080593895
-0.033407477652460014
0.07225192762609634
-0.02045250112860862
-0.08103413863403586
0.0911537428487571
0.5598207675223614
1.0098279927454548
0.5809371140991126
0.032022557893340325
0.01066451956388415
0.012532131850387512
0.04052348537139409
0.010510650634789225
0.0392506021857337
0.0005332708211090268
0.022582906729549126
0.035171507258955036
0.12248913751737392
0.002851652943447641
0.04938320604636266
-0.06535444496091498
0.02133223032460011
0.012639568301857015
0.07106530628137651
-0.07134344132500811
0.07537796788727823
-0.09551751245741885
0.021833031143659528
0.057317193952504834
0.11565669885806969
0.03395135803471389
0.08335573848988517
0.03072067892341428
-0.09294907776743187
-0.006684668639419332
0.17240803209803854
0.05491227005189536
-0.08296392067730768
-0.024411090282457096
-0.0563995746052423
0.01954404424413239
-0.013065401191394613
-0.009298050534923509
-0.07761111009619096
0.003483518389629345
-0.020408156236139213
-0.02292064719109268
-0.030850132544155286
0.0312909608577653
-0.021267574303672973
-0.042385365781503724
-0.0040877653297251865
0.030597283834715286
0.013850191031608101
0.01551267947198775
-0.0394509770802579
-0.023855290765825536
-0.028279763536264588
0.025571436007087653
0.02288045441649265
-0.009611679414640275
0.022115057152748224
-0.050314754924870975
0.013476000696399069
-0.07252497918401717
0.037490986317194594
0.07123908995382265
-0.04616097567756919
-0.018263181486268053
-0.1277037803791363
0.04127771820694505
-0.04732940343819557
0.018321671381124185
0.007828379883432537
-0.0065444712360593
-0.004334747244907433
0.042615146840165326
-0.05030989587236709
0.004747014081226974
0.11213179785621337
-0.007694043226252741
-0.03843964536550051
0.006714947251588742
-0.0037532615748941153
-0.023216600087012984
-0.0018538373783069683
-0.05166813615469971
-0.0748044723563558
0.02377702722311187
-0.050153693664250425
-0.030631034271008648
0.05989244758730117
-0.05826712033140155
0.024853382679632514
0.11506859831734113
-0.016396574919590953
0.00969619019378181
-0.04098555102636353
0.029295076371579465
0.07694238853412828
0.04250090644405449
0.0658048363744831
0.017654681501419935
-0.06561415348725883
-0.06120974424513412
0.038896158828688014
0.10007472745041901
0.020797551365847905
-0.10022039993694785
0.08529782288829611
-0.07964170624911707
0.013727672479431258
0.04287315845716175
0.02682404536088603
-0.02088439775637367
-0.015677487261064275
0.04034600164972265
0.054347222814455504
-0.009827370430059334
-0.06813437945271178
-0.005556065829913662
0.046583016855315046
-0.04559924351259931
-0.06954855003851944
-0.02125133126537668
-0.06331893304525321
0.043764731755271596
-0.02733546569352512
-0.08102171167383648
-0.03585499903451871
-0.022904715329083686
-0.04996583581218371
-0.0026381453379027905
-0.018357627038038882
-0.06471750336654852
0.028338755792649373
0.09961202857541217
0.0040484245531229235
0.004844503633496784
-0.0601270415154238
0.009489322444573156
-0.0035385284863803596
0.03641311822098566
0.04593362901481543
-0.037215056106558564
0.00862018513862423
-0.08557201108105895
0.049337891607059564
0.12813318540670468
0.007799532443773467
0.04993951836660298
0.023279323399919866
-0.049249704271667354
0.02142149847212831
0.058561126952145465
-0.01741362942465274
0.0704210758654098
0.07667194749710904
0.055264763083360785
-0.0418973900611361
0.08599485725800214
0.5783703077224777
1.048390740462359
0.46011799901975114
0.025096886137616348
-0.04296972985178974
-0.07925987976975783
-0.04021539592784329
-0.05621861788727914
0.06666904406933358
-0.034035350915203204
0.07104309699274163
0.024476905035614557
0.04444925030952501
0.028604186464533984
0.004622427444159584
-0.10433129442232608
-0.043541130535744835
-0.034363590857439646
0.01389801535292102
-0.03318965840131084
0.022827363453864755
-0.12565351746637765
0.06368591108636922
0.023590478155664583
-0.06128912586748764
-0.04187850079174657
-0.038073456489956234
-0.009333343243051578
0.06290470028554061
-0.044940097194322015
-0.08601219096886456
-0.04008751373701493
0.034985530828368624
-0.04377584593333575
-0.02861679782294937
0.09594702154610807
0.05802297777753445
-0.051638346827376835
0.015658310301558634
-0.01655076685682545
0.11924643632784171
-0.044112376256440836
0.07796354327698805
-0.01923097157070125
0.027777665936779217
-0.05208637870210552
0.08148063790637487
-0.04025397812945283
0.06728367398699174
0.021510740264859045
-0.045720210335130906
-0.04858228726844629
-0.18442458022841463
0.051967333360792414
0.039452044413266746
0.021922737874585176
-0.050030999660904046
-0.02487222125926758
-0.00842552714075004
-0.022813806697362767
-0.0249212676225403
0.05084164442905956
0.002553966712375054
-0.014157519981243925
-0.0026710572272397592
7.35792720780009e-05
0.07381526065239963
0.009451323424410353
0.032018769544147195
-0.09194794126403466
0.03656634888599452
0.06807785670469313
-0.01642293221714984
0.048589067048137036
-0.036722848704814064
-0.05788091804149057
-0.014159821347099092
0.0006534821195606537
0.018256087854493855
0.0404752819888411
-0.0687181146010561
-0.01033133685496824
-0.06759564059286305
-0.029993156583789038
-0.024063272072770956
0.09862289635088223
0.19941489266571774
-0.012237675577609219
-0.0801978458398281
0.06373047755380828
-0.030775966757694142
0.017020945271407174
0.076584800753553
0.00024574816921197414
-0.0579721668691121
-0.07651069854260095
-0.02113388225868526
-0.04030747918524703
0.01282714846027894
-0.02287130336849339
-0.015824557398853755
-0.022158209612031663
0.019344942998486103
-0.01244367020433164
-0.016509298576911087
-0.007661371877325147
0.00853502881088153
0.037100966172039604
-0.007712722144770392
0.012379174662642288
-0.08929794028901142
-0.055191884066105826
0.005185705994855029
-0.08401559229039449
0.05858834354959093
-0.02468161650957812
0.019779197369680347
0.06032814903323609
-0.02465873581684582
0.09715641734940769
0.07728497433801618
-0.002794319703486561
-0.02129289934087722
-0.01664295648681248
-0.021069893213459593
-0.10615069529017514
0.0452171771204842
-0.019680103838501887
-0.08187983593484531
-0.005539274056063551
0.0018102401685454574
0.0286213566285259
0.027209501963693157
-0.07106643656013803
0.04540730561414327
0.03482065587605785
0.0965139299299064
-0.07032181709111884
-0.03149297598133937
0.09000692286389604
0.11059513512835815
-0.02299165193028384
0.0040439695094113964
0.04660065777069634
-0.03349419293917254
-0.10097460539541543
0.035314142272655724
0.046557791934153936
-0.08203545760632897
0.018884074869627468
0.02347918436208187
0.03415181254684682
0.03180494188114835
0.019661371563109653
-0.031809032169196894
-0.04592663165925598
-0.004970071476917465
0.06884637471144557
0.5319150460627825
1.000022259577102
0.5145372404254086
0.0025496575629730123
-0.008607931963813193
0.01285050703574612
-0.010216540231665468
0.03919389665247353
0.034945291449787634
-0.06448161388897565
0.06855384958180606
-0.013051585486431094
-0.06933208287088946
-0.04735417087529269
0.09071860129892378
-0.005429619405717211
0.09771491871439364
-0.07769478141146202
-0.0632179820825102
-0.0015999690084046682
-0.03246043376640231
-0.009505487127152256
0.038505723359623406
0.02055465984162322
-0.06447451937197408
0.028863382233938858
0.005064689826435187
0.054277552274924735
0.019025842684855555
-0.005489435650912415
0.03051238610834437
0.06115679231417867
-0.047981368634624516
-0.06808775186963693
0.0019150367858713252
0.035988679744508596
0.006557819520790014
-0.0038276184478970503
0.0021479510290593434
0.074885704612826
-0.04078629663725197
-0.015101985353016677
0.09024492087281384
-0.0018543073923664812
0.1140906957212734
0.023959665926866894
0.043272702537379915
0.04306569653023512
0.00021904128656657516
0.005994325564092352
-0.05233031244421024
-0.006355332041998319
0.11478561198782487
0.07895615437681863
-0.013327068110132673
0.013606396753531808
0.06324978904437009
0.013918943681064687
-0.03181528387253422
-0.00012719838353784276
0.009403896237580629
0.04358541809753591
0.004596784832132015
-0.08060127847549803
-0.017189636837489395
-0.09580411497316514
0.07703522377361269
0.056336110864236025
0.002830448374320037
-0.05451044080727453
-0.0729070046516203
0.043114973693563666
0.034426059945945456
-0.043528440232532106
-0.014013075853844323
-0.03543356735210417
-0.09150670841154301
-0.028444749861010254
0.02590900328858686
-0.061598014093859545
-0.0473975838874001
-0.03816585148358782
0.03434415631797052
0.004224320261460794
-0.036912464349806294
-0.0852697746819917
-0.10292328014372434
-0.02037121470629438
-0.02726772936601643
-0.08055098954050936
-0.010254003510692694
-0.0589908292106702
0.0007869159919295555
0.05279706510433894
-0.011720527083508934
0.009228300779019073
-0.0020394283039660904
0.08842730401269465
0.04645786409870976
-0.0925807728680567
0.06545248130113705
0.04865878322163192
-0.035188286798320464
-0.07925365554824214
-0.08681316455126444
-0.08674907443757117
-0.009119588447486688
-0.045786117057735505
0.02862677116995989
-0.0034730831742623676
-0.08187275656024527
-0.0303080192639694
0.009316614516073353
-0.05199804183493831
0.018109266890341175
-0.03886188613262706
0.055731127850812294
-0.020991151870516495
0.07559090498947049
0.028117518254380053
-0.08166884841089257
0.07392809870968066
0.005898069987298428
-0.045262025605272906
-0.05397545434311223
0.058969557841622305
-0.04814534823352026
0.015029366468381544
0.019903667988327794
-0.03363189852160293
-0.05915352753375063
-0.056978434094915424
0.04035340268462889
0.03787335252513772
0.023565794248842496
0.05368127614948365
-0.11925263741509139
-0.012348573949909855
-0.042656866636632186
0.05467460831218882
-0.030247316164405236
0.10582660744781386
-0.00343322717533016
0.0238824573711739
-0.04432052034456829
-0.045217623561539334
0.006116213381656657
-0.047434636844057465
0.09920780434350922
0.04392478206194937
0.09493277877471369
0.03888905356965793
-0.055323880695302786
-0.0031307252195851296
0.041556792519300285
0.014107834510186587
0.5072187925534577
0.9630815297811421
0.5458859557123588
0.205970810705917
-0.018893006316856687
0.020693830101687613
-0.015176862412177689
-0.056290764600441426
0.027894857138509872
-0.09236498197102676
-0.021002185904863455
0.0706917725410308
0.012042133008116788
0.031233306627894555
0.08049707342287525
-0.08058918868925652
0.01774505790744478
0.01047482859032211
-0.02773957660855722
-0.004604194996768333
-0.015005384855199706
0.000364822933821318
-0.0729319312506616
0.1267578102196971
0.017770425189495037
-0.059591763686766455
0.060975345234999194
0.028780681434985456
-0.05147344986571271
0.08219646007319564
-0.0742086146089032
0.027691908946389083
-0.04683359723533243
0.03149865966076384
-0.008369900215157967
-0.011387819092034531
0.0040403740547188365
0.005694292793744647
0.010637838904429632
-0.01604389395658552
0.0006726743934453347
-0.03922186824324807
0.05029006126297451
0.06704216419586957
-0.012231563805128966
-0.0028706164436681733
-0.05920811048987756
-0.08466409594151791
-0.03968322056468173
-0.059845389392038456
0.04916618068061333
-0.029266230730241108
-0.12795097967853772
0.02557713796706498
-0.005592804791030182
0.016695592811693805
-0.019019032770796578
0.11735791547018917
-0.009121989786408246
-0.01942961176525706
0.04261791930663802
0.011686537122030731
0.05005371274384665
0.007790043746256226
-0.0021119770028492153
0.02898689709492392
0.05486336818602158
-0.02644226757182243
0.016125304616993158
-0.005731872540063606
-0.06064728043493788
-0.040386179913330066
0.0154113456080626
0.019893996115424382
-0.023732671048000906
-0.013535191057274229
-0.0655225414098506
0.0664919593889023
0.03385707303477852
0.05329501716786494
0.08772696412428696
-0.005409042356847679
0.03246218067634298
-0.0704685008775678
-0.06198576372085849
0.13969535386728338
-0.05881490245956712
-0.0015440412185079152
-0.05613187481383062
-0.04920713295982753
0.07120852913862866
-0.04420187082971641
-0.040418347984203
-0.06441616670834029
-0.07569119283189661
0.08196109107921884
-0.04382769680558154
-0.0018502383448871233
-0.04021533551860085
0.015786229385720146
-0.06656189840432589
-0.02631148592263203
0.012479168639485507
0.02073323303716211
-0.0033752505533924666
0.032730012569375855
0.03650953411931464
-0.013233071033235781
0.05817639481158378
-0.06823656651022264
0.09667151621288453
0.000346760706699287
0.05490492751544136
-0.03224640857023743
-0.11490758778893112
-0.016522525754878458
0.04198945121408672
-0.01632280773949422
-0.05488333644347285
0.06858424440714858
0.030419223867111368
-0.04922355831506518
0.0599415982153699
0.033300598308137544
-0.06657615099895926
-0.019693275604362237
0.04557915058750172
0.0007959621548526378
0.0005242336289577263
0.02959682668424802
-0.09388824864604708
0.045288349492768
0.03592812869420089
0.03276914480397487
-0.007908989579823935
-0.00832697333632421
-0.05370816524356589
-0.03982132698087773
0.018578500801359085
-0.015308344223582532
0.006320330828885278
-0.021779608255409963
-0.07543657967653741
-0.04370603247785536
-0.025907926104498647
-0.013333916408713502
0.0007122436458063025
-0.03550639359946576
-0.01127453298987181
0.04293658808298693
0.041835011040945426
0.03249040008194596
0.047011604698181136
0.016446126358849445
0.015931104445741133
-0.049496275225645474
-0.04542321400217886
0.06957820327405195
-0.09541624585496011
0.1262088301402316
0.44201142154466677
1.036860273456014
0.4624259511088368
0.0841054880425035
-0.03165794243062788
-0.07630025196879703
-0.06038174017382361
0.014061239625277291
0.038052520429802526
0.03278554841294214
-0.0398371870773867
0.04160737313293011
0.00611535770356159
0.07277703758625047
-0.02236119913549702
0.044210584612881756
0.03230626419335629
-0.024615763695756007
0.05315633402400941
0.011511750686179092
0.02341144751351135
0.09008642712013307
-0.010356416310273502
-0.0419722139412114
-0.019285153430261548
-0.029720043573477514
0.020514753268048747
-0.05098772647608455
-0.011968032175052185
-0.014680644653085356
0.052887676105586603
0.002340912405944058
-0.09740447368310717
-0.03197906362220705
0.10456263018868464
-0.03279978638070293
0.013639339267581022
0.03891729505535038
-0.10217568314282488
-0.04402246382850565
-0.06562293468345591
0.07986626317231647
0.06477450391380368
0.024906768294704895
0.009970950237591487
0.007709480748668316
-0.03992977919087619
0.07135514210485121
0.04343191281760541
-0.07935590579666843
-0.034621588690979206
-0.09721315274600623
-0.0025379416877230917
0.01910277402363668
-0.10683211996316705
-0.0001196087154168243
0.01648190163262621
0.02418877889913399
-0.005685101803743227
0.02134657429838377
-0.0016528277016348563
-0.026882627364968128
-0.003888140514612392
0.08817358632438912
-0.06449299272492824
0.07192873528670891
0.050952842539766945
-0.09570955008657127
-0.03333457775878215
-0.07199979259718539
0.01755692843849824
0.016538462349400436
0.007737738898820458
-0.11726179403646458
0.004602963641455996
0.009442724890560123
-0.00498681486077698
0.03311657503585755
0.09433609538489529
-0.06765234009710612
0.013532426765698935
0.014173686592395608
0.056656804108512565
-0.02176910802176063
0.01661614844299656
0.0824016791461173
0.0005209143060546605
0.05424486068607947
-0.00879621733254321
0.05572319494211404
-0.09516747206225812
-0.05162225806421566
-0.024962271931555532
-0.008336049733245286
-0.004330435630489317
-0.06600239046281876
0.07530126118698269
-0.04971992430963884
-0.02481197912327344
0.07515728500022739
-0.07004488687285199
0.014573845634186705
0.003070864958171698
0.05384428989442563
0.012221558556442504
0.12705993394021406
-0.0755207839920024
0.01692599387060942
0.060551828696455125
0.08889254158459509
0.010345456464703242
0.08493939481493205
-0.10286192372020873
-0.06553039684652028
-0.011777652818445561
0.01901973067296548
0.04982073560511893
0.03193087151060602
0.024150911779633244
0.016198880279252724
-0.06469467505708246
-0.042007973189797446
0.0263182658511128
0.04681966616647579
0.011860553885151205
-0.045669013930080105
-0.015177906849250196
0.07590497810490028
-0.013659322363079807
0.11371956423461022
0.07956615033543579
-0.00993644188793125
-0.05198468296152762
0.013720300592153118
0.025680539755656373
-0.07380505243405414
0.009440464658728375
0.04460761127991604
-0.09409030851456844
-0.07968837964740164
0.018998171891808063
0.0664078507398354
0.03523917171782189
0.017934090307779718
-0.005316885579715225
-0.015062721958234944
-0.02853840341260951
-0.09083863393383013
0.04610616746534607
0.09457784558355586
0.015654778136066593
0.00815913339712105
-0.05967588998394553
-0.010200417938163897
-0.061232963603333496
0.12237357716865009
0.5693445494848355
0.9849914341019937
0.5036839267332817
0.11179683191333609
0.07349996513331862
0.03552596101851085
-0.05559016459504798
-0.045021969709209686
0.10752636005327464
-0.05046224048380045
0.006063149496902901
-0.04095519585302744
0.008464737244509348
-0.06309532384114094
-0.0006046454140164533
-0.017153587021842658
-0.008644889998013173
-0.10115274261250953
0.004868304514888596
-0.03316872146762072
0.011035148019286052
-0.050436762025768134
-0.03922490100938541
-0.041787664822092535
-0.011172106220472471
0.01730775444589128
-0.029937907536695035
0.015770460768736703
0.030691401633863625
0.06191827694504155
-0.03684110716823372
0.09713448432274549
-0.0007638167272141363
0.026268653300328654
-0.0522113084160646
-0.08673576397790549
0.037504340620232925
0.087108886236262
0.0043544811671304175
-0.032876917172512087
-0.035478753780659206
-0.07112871567898864
0.09461363716916743
-0.011937698804370277
0.08257879496220466
0.07507222969199094
-0.15427400433794597
0.02093275439306926
-0.0009158646960956973
0.023849678204705294
0.035587624375199765
0.0039969845035350985
-0.06787240103797476
0.00939634602154151
-0.02258376942790436
-0.0534468805148169
0.040346716769383666
-0.10696768151231417
-0.05435792145632761
0.04502577134695459
-0.04039677528987731
0.05762173965502694
0.049031458084320946
0.027675625679492555
-0.028054179645760152
-0.07838732553277541
-0.01116870498005262
0.01312931050116143
-0.08478972943027666
0.10335354580873486
0.06425088377950985
0.06268721262607839
-0.04388628360388058
0.019058637087728692
0.06449845987475832
0.024137289053657196
0.09716976472364211
0.04370103919691332
-6.976350680468672e-05
-0.04817432447329281
-0.06310060476628324
0.06396602741142014
0.04683555014024021
-0.008652224086247667
-0.0022053253046901713
0.07693093655834105
-0.055566143514561364
-0.0005280577243202929
0.028922477331058655
0.021061958961754737
0.023742380447992137
0.0024858246332946712
0.04118749964868738
-0.012356147132187606
-0.001875147372314058
0.04847902969154005
0.059735544244534415
0.009056474885672145
0.05540423044437787
-0.06409537132610463
-0.09445947512066107
0.010430122190355363
-0.0129862641043405
-0.00890867435866157
0.06822286986157583
-0.0024440662653773724
0.07248430877421787
0.03246147986649536
0.04970151627647662
0.018448329601429597
0.0570241251907671
0.06331807480072792
-0.006234707168665506
0.0024445898666670073
-0.011346445921735691
-0.04441091424747797
-0.012986654818395832
-0.0189371847227186
-0.033299004106323415
-0.025211849413016876
0.028181979710551128
0.023991885312483165
-0.02753031263894537
-0.12075967736333096
0.00503974267829838
-0.001140927943323807
-0.04303607007043289
0.0982410033085443
0.010385583559756504
-0.006256920425434448
0.11011061559422218
0.022088385707747994
-0.019600786934034387
0.0596268240353987
-0.005337622922922294
-0.010314209515825144
-0.0469031031488925
0.013776382624033754
0.02059351829377531
0.06590789320341578
0.014533678003111212
-0.0038495859139029507
0.030583023853835878
0.0512595060773422
-0.04710222407823104
0.002332682014279054
0.010917114801781182
0.12305949973672775
-0.05507085942811412
-0.009178765433886862
0.054698498081127415
0.04016430739990153
-0.044493076892210805
0.07873770232533406
-0.07405094531403027
-0.00038042786092534314
0.05075052666159066
0.3797152986187149
0.9296179293555071
0.4919058697333763
0.048615799915731686
0.02958820366798567
-0.04585451386581743
0.006505904747226735
-0.008817830029901245
-0.017789212118230664
-0.06103163622130492
-0.02184113429521406
0.007315018212974717
-0.053392521911596706
-0.07217011742653921
-0.005960912303942586
0.003084746294373002
0.005523723946361973
-0.007681829634016375
-0.02094538263587048
0.041145248143964065
0.1232914506805531
0.051366724068725216
0.060206386126416336
-0.03582727099606831
-0.06681553131677621
0.0043015595246559
0.05098336458473063
0.01824719930527267
0.06681715583328003
0.017656480053125683
0.04417538925003474
0.049442784478938254
-0.04885993090274608
0.002690264120456946
0.0035064296403645775
-0.013034412121457065
-0.04879637776996672
-0.007661620574411856
0.01340638946265056
-0.0034993553365839786
0.06237612157710845
-0.006570397950858256
0.05011868836878927
0.011133653409412018
0.026613596243324766
-0.013759168268746545
0.05174207080929029
-0.04557584653874935
-0.004842428174356796
0.046759170906990805
0.00478001538928575
-0.014465177336322355
0.04382634522095249
-0.06023787894792415
-0.01783567682594697
-0.11873359101413886
0.0536208451301331
0.031188823977424784
-0.05354803167893444
-0.04159526913084424
0.06709175978813893
0.12487500933544393
-0.013403577300703668
0.009139421241938095
0.024948486840759024
-0.014280309524897509
-0.051047354071570385
-0.023787285616208798
0.056660306305544
-0.007436453939983195
-0.0023563541730337624
0.0172368689897589
-0.04531636561985979
-0.03820198060516154
0.02787557760617497
0.050816950475946365
0.04243573078873897
0.053388216742380326
-0.03826565093270159
0.005282443141351134
-0.06708181417606174
-0.010228563698042377
0.04532824791347657
-0.03344654368746667
0.02969563904019349
-0.059003984685020466
0.014292686649694759
-0.041807692119393294
0.010365429839257766
-0.04681847768730227
0.04362234780252446
-0.019910118573897698
0.0887727317724569
-0.025421031108492826
-0.04581671810031763
-0.03212979702173696
0.023563754381297503
-0.0061923156869106485
0.015710121390633262
0.011483568715974854
-0.003990182967411409
-0.07604639877958737
0.0058813953180962995
0.025008456281756682
0.055419271805956676
-0.06300597988589489
0.006886151429709575
-0.0557063608434633
0.026938976811410525
-0.04324481821601872
-0.02133920483518333
-0.09571820712085045
0.041219644484360655
-0.04563950005758867
0.0317702635731574
0.08136722533419333
0.02508345754084831
0.03012790887262111
-0.05022314297381702
0.041477866818024345
0.04613119273093133
-0.015991607916673305
-0.03517233120895757
-0.04318255701618427
0.04165102013277575
-0.002713578753826123
-0.060836155560905096
-0.045765963645565295
0.03269777216660047
0.026935858587575884
-0.010542465904944905
-0.0202876721043481
0.012727078271921844
-0.07428513192189536
-0.025591921280053626
0.09656958573691826
0.006761459697941601
0.07843575352157413
-0.08228947129780681
0.07299565781959283
-0.04347104880552056
0.041226898566254805
0.02675510369863826
-0.0002956449828143271
0.06959486198362552
0.028351659296681594
-0.04393008863592297
0.1247204154267384
-0.032292239659848086
0.04197772436223154
0.1041947947244252
0.0112550363582623
-0.06034410049216063
0.014700821387252852
0.005925425200145707
-0.05020704484582014
0.15086007567381085
0.44278289935690135
1.0113952671830464
0.46790918364755096
0.10452090530073713
-0.11609392790237379
-0.018347406274773288
0.04844113838904959
-0.011305901916320325
-0.022537533022129814
0.07363910002739801
0.029679676485125397
-0.022408068739543652
0.03715599161177102
-0.06741366565364958
-0.06650700576515288
-0.025329728144860147
0.02160625145940108
0.0729214366804141
-0.02484490210677595
0.0019107583248534768
-0.016928744160379174
0.013364159279882035
-0.03288996980759492
0.07857060573866927
0.02198415645739141
-0.01964589239090104
0.0017462913220805771
0.028889252784060734
-0.06813667418394341
0.05481735624347193
0.03601843928690053
-0.023614438726467086
-0.03147744257968895
0.03976696469743893
-0.005968452928030555
-0.05450362309884719
-0.004031839791222613
-0.09801263081020847
-0.08570225032376899
0.08993963415902824
-0.07905964167916116
-0.06489601414655159
-0.02632288108172827
0.061658041591856394
0.0054022825696697216
-0.022152966478247195
-0.04871886339841288
0.07097029839300491
0.0402796966731151
-0.0040857079728727815
-0.027268468462656566
0.03697447160718837
-0.039145817019538245
0.03402990511278137
0.015717113676759122
0.11007893777165115
0.05340627691814701
0.03660724472183626
0.1508562978273407
0.048875450248534916
0.010384642990615736
-0.04089514143124807
0.031139160896458108
0.015770843987774365
0.12459887019177424
0.014725113287345779
-0.006184906265362142
0.04683536470658384
0.007296694422320148
0.037934522710585526
0.008348664456036912
-0.0036415133468777118
-0.04781947162479192
0.06931075276818391
-0.014710409576751994
-0.022030914533797553
-0.10261576772978143
0.031694941956190534
0.017162022279601764
0.026112652307724478
-0.06780687294219802
-0.03122090727876047
-0.02043984325079769
-0.02066875513070363
-0.029065791808464227
-0.005620030735603797
-0.017770384315762788
-0.03531539588970713
-0.033907471522028304
0.019304249111008982
-0.05786376755083916
-0.04245640057920361
-0.04607973527987256
-0.03030632463060816
-0.0019280013452592398
-0.06265653224488477
0.04403115994464768
0.028481381286009584
-0.027349989347568122
-0.025360726308268546
0.05041544210149782
0.06873035050167119
0.032852541460809334
-0.04404920574394326
-0.02179296530277873
-0.0006222193442673111
0.0010860308727464025
0.05962194932540507
0.0377595643911866
-0.03180781560868569
-0.03741396333102498
0.12692240003654626
-0.03538338915992126
0.07934861012668766
0.01229239668452286
0.007321361358751402
-0.03491714436164522
0.09392007375814936
-0.021741127780471787
0.04749580229973368
0.0344243293232671
0.004960644412809201
0.036373054227891624
0.10056490326845767
-0.003763758065388885
0.03305094051955192
-0.02679426394544517
-0.1258470836201001
-0.018503595775178596
-0.027753269438490314
0.09010536998545615
0.036342454057822285
-0.11677120408988212
0.010173276117254578
-0.1313301097358623
-0.06846534918234556
-0.01370121843396879
0.03145551571870209
0.004845208930653283
0.015830650607798445
0.013260689518002071
-0.07815241605558823
-0.04988739158013157
0.019675848109389077
0.040656381708581935
-0.045735073703122985
-0.021906594913817794
0.044030789841616
-0.09097058545844613
-0.030916928038544712
-0.017565421298960375
0.08406466399797242
0.015927026288831532
0.09060106791392174
0.014609466060576178
0.09989524535505055
0.4942498906925368
0.9624457158316777
0.45065072624669694
0.10141594845198337
0.004033870296886551
0.04319237540829553
0.015350848592313508
0.030734855641483146
-0.045158123201395346
-0.013994701144365516
0.044713218859828985
0.01098657447819159
-0.04451272630966497
0.03658439693101072
0.030172831434421194
-0.05759565394837507
0.08769314657755194
-0.0824800424362829
-0.0027084112371818475
0.04682354930425561
-0.036941702445453015
-0.05539863364961023
-0.0805576703685248
0.10128954072483727
0.03560685000552096
0.03499068439125587
0.026059307223422364
-0.026441289563410148
-0.05132819945959691
-0.039821804678510736
0.007312879719520294
-0.04260700446602697
-0.04102134172927197
-0.04174966203787068
-0.05888638546862415
0.03508205258256088
-0.0014822053438967393
0.013695629670272583
-0.009225222243979493
-0.016426897875187002
-0.05127081712699038
-0.04156379311442584
-0.02104087885989203
0.07922380555012484
0.018744797603502648
0.014755569869383443
0.06531933669715176
-0.0028276185033952964
0.05647158475044189
0.07710785685997101
0.051160487833891204
-0.03614766771428237
-0.007416028456682201
0.08096451538814446
0.023148415427289404
0.08632020994343384
0.052301310641755944
0.029672507275184553
-0.09122670426621751
0.06664593174916271
0.023317117620328287
-0.014059497056423481
-0.019550286385530472
-0.002196366011825435
0.05605338999481671
0.06755959506045563
-0.007697064659411343
0.01695977812945079
0.08253287770454448
0.011769494401094292
0.06556871700563836
0.02941059771712891
0.10091532918651608
0.05015759406025663
0.004106766689611003
0.056255192958413414
-0.018031168668552804
0.06705315429659767
-0.009927494405524907
-0.03660685408879219
-0.02039409656643484
-0.01559498443037457
0.05486382548857155
0.012600232186300948
-0.018417859429065986
0.07121467501751187
0.052334642864090425
0.06059944562236566
0.01578004930158367
-0.0025022897323823306
-0.06572004581431921
-0.02806527260198592
-0.014708802850875861
-0.0384626123984231
-0.022492161852838255
-0.05696465256170587
0.10514608382629304
0.07058137278362256
0.0007646175752391223
0.024973539021234975
-0.011585069414432327
-0.10649102061524057
0.06961070758347562
-0.002801869402771091
0.038984561084913875
0.032050762320523604
-0.010361439488206128
-0.009979142848658105
-0.012258463028459005
-0.05760941590956528
-0.023607530999591664
-0.04411531575422789
-0.02564240535390915
0.05600605282165451
0.03200909768720008
0.015215469771568919
0.01487545626045076
0.02361628547331685
-0.03060360526498647
0.06719463165932243
0.02381780298199483
-0.06727851930803604
0.04368523646937629
-0.06470979673299244
-0.059333821341171246
0.004466969130650605
-0.023972435295855753
-0.03483603946513331
0.07908884145488507
-0.016845993032961463
-0.09212491826796429
-0.07297999649883251
-0.07171514378056096
-0.024786548857438667
-0.03992623778883601
0.0014079017484081246
0.005073563517215758
0.009797202402080747
-0.021301091084799
0.005070473458512834
-0.012057014452000516
-0.04120564356555126
0.04291978898192021
0.03045439168179209
-0.06570596528174732
0.0067265540727924475
-0.07286292371564627
-0.02512411250395302
-0.06410604444558529
-0.008733036130667641
-0.041331082088613816
-0.031870960309992806
0.02326928066531072
0.009637682907146878
0.09031536751780654
0.5082654926163239
0.9167386577939336
0.4105930833162167
0.07319075538992245
0.008900003751964786
-0.062445958332877353
-0.03567236168936493
0.001271735295631504
0.004283732270002796
-0.054430656839248984
0.10151200037724961
0.0024811217503348595
0.0289237511440003
-0.10063956201958102
-0.16951759218145246
-0.06382024683168773
-0.04085681584999946
0.033405335095941846
-0.05967512951722753
0.0032406747232266034
0.14255958561649015
0.04938554341918154
0.0033827399947448412
-0.0199122719470103
0.009728243175187197
-0.012212782538316107
0.0723064649160188
-0.07072458249437877
-0.0022580163503354905
0.009216797967040032
0.08263370899839376
0.06595400573971018
-0.060006935124603394
-0.04575348168207563
-0.019805201925306725
-0.013036343055986763
0.009966221226967104
0.03412711031305885
-0.05920695926062283
-0.03707413533173851
-0.042999687616026884
0.0024504019246666814
-0.012609560516291897
0.02891688364516878
0.022757884207615677
-0.026568141669769476
-0.02479872238361691
-0.09899458754320538
-0.06115107758288768
0.003545353204038907
0.09199987638445284
-0.027384751174935787
-0.010094798068367699
-0.022623421498644897
0.0393476123765588
-0.012909036354780388
-0.03783960444854708
0.019837902613120916
-0.10595462894251802
-0.07128919345779625
-0.07066421942744458
-0.08197257680699013
0.04780438218959627
0.05068911096276947
0.041369764170641754
-0.07180279003089333
-0.05180308818043843
0.03025490923839107
0.034704045553796546
0.01126542841429985
-0.004213593406196716
0.056966729355004964
0.0675513963436854
-0.04547439194294396
-0.015411198401926242
0.09006176803014233
0.00026905097749254286
-0.0006116424707051156
-0.04413810491510129
0.01947051856087492
-0.000532223762564349
0.04542938626525144
-0.04774173246006403
0.025403681358392324
-0.07998783169974726
0.05954099788835916
-0.05393712157967493
0.006084147867364316
0.04073407931830741
0.00866714395996967
0.018956377261175758
0.023236168975250944
-0.04140486936835597
0.00204937479179113
0.040945449158461406
-0.10279256624583813
-0.05879921442810211
-0.024798271716387266
-0.04816299962193504
0.06667499192742124
-0.023088035642178026
0.0343022742144014
0.002288060330527149
0.015370235370733535
0.03650578477210339
0.026040431390001773
-0.07265196557808447
0.0605373761627486
-0.10056068253144222
6.417449011656932e-05
-0.05069826203392375
0.10011741888164967
-0.0067805821498293775
-0.019737433651266838
0.05094102485728635
0.004613346789412834
0.012881328116702426
-0.07657683145676476
0.04229952186824851
0.0862725490739692
0.059926090911672426
0.023969458949156055
-0.09322011465970964
0.07101948435428591
-0.009672295462627024
-0.020908795904766495
0.07850117904319301
-0.065603224542922
-0.007923683653279799
-0.00399557521086238
-0.08665293338142549
0.0648504029161912
0.09318248320788748
-0.03796058278973537
0.03669430150880128
0.03486039932654842
0.06266305141276844
0.022739156954756864
0.051247655976102646
-0.0487444267848875
-0.03912853419259925
0.060561827417531626
0.004813472020159162
-0.035167825043131734
0.049286482384042596
-0.07777443390558347
-0.045607102257806675
0.04263775708664301
0.05300778811250261
-0.022436313454913575
-0.032265425525755335
-0.05014999646815772
0.03968058355957374
-0.002108949786439427
0.03166855989379668
0.07659704101328724
-0.016001786662977125
-0.036685837821417704
0.09426447873605134
0.5400291607434888
0.9351312735859397
0.5306886416654388
0.2027234526541385
0.00018077838145371257
0.0028451520933041475
-0.022175191347628367
-0.018130266535959113
-0.04284490604632967
-0.03827935526537857
0.03100331896955438
0.0087271760489852
-0.07150117724516042
-0.04723218912606708
0.038746294647968305
-0.0054498134643228505
0.06976898994974844
-0.024126364625739347
-0.0005146996640581026
0.022834885164496044
0.009547559658380469
0.007387927257632611
1.1095417011966709e-05
-0.03673060464276858
0.009484650145888538
0.008558800378192238
-0.06947822465717582
0.018704538323901176
-0.0477292583212989
-0.02503916233817375
-0.0038286974143303953
-0.06942626780176553
-0.07739359035175383
-0.050023409771941245
0.01655667594961479
0.04319669549272015
0.031996943630986444
0.003847595239996403
0.055234561595697944
0.0300342599032444
0.060774560673240996
-0.04870688385046787
-0.07018272694883534
-0.0014333122906767127
0.06789569119592824
0.016528371488759207
0.07248499258665671
0.005810266049448389
-0.012572563436220924
0.046918803434264994
0.03627327204482307
0.044545505019906756
-0.03898261008932972
0.04670818293989057
0.025896470848320488
0.03287122579763793
-0.03886256018131239
0.05219347579983091
-0.01870955501459305
-0.002008029783406019
0.006617039337900502
0.04348629506975873
-0.017867950287965628
0.009079165200621365
0.03207200500670278
0.07832132588533425
-0.04162597310051869
-0.06599042609462206
0.018484456979984132
-0.03579208619168473
-0.04012492486495535
-0.015388261523834532
0.023140452606676663
-0.01893816954199539
0.11295965772961734
0.012385859437881702
0.012608300547619137
0.07629108707848942
-0.020908119982081412
-0.06838009894590225
0.03717195612577787
-0.04539735935193984
0.07216883901917065
-0.0027838947924233104
0.01989850671118666
0.08132798422055892
-0.016484815841159076
0.0055007567844088095
0.027984537000963844
0.00700151415236407
-0.01809001063917998
0.018189692805811446
0.04962702951211629
0.05988254815490717
0.0813669072318015
0.037434137687058854
-0.014457608551706353
0.0070087128697849084
0.018043391879879724
-0.06494270553725993
0.1235789035618305
0.08233582177551235
-0.00747570886663322
-0.0012591210695770544
-0.023570667213760346
0.01475759678327179
-0.023316452624288317
-0.015923642654310854
-0.034287099982760576
0.014660085736995074
-0.027295243468932834
-0.04025571701802688
-0.00806829393827185
-0.014621162116677099
0.06774471747188164
0.019237857005912382
0.025077841221151538
-0.004383422841589032
-0.006499761562139499
-0.05684361493707271
-0.07991164649702924
0.026982799495354953
-0.03607164929336202
-0.016815712037064747
0.02319782228642514
0.08519783295132319
0.049006249867183056
-0.051772477837427944
0.019154117149326546
0.010265547338641589
-0.09575858104189135
0.00231411041162758
-0.06069521376867936
-0.005611345845838292
-0.0443860308307651
0.06429975816610609
0.05222557551920831
0.0791481322592111
0.06495961691941253
-0.017908092561886777
-0.06937103024440895
-0.1302103692083226
-0.06502301353580801
0.04412462424256772
0.08014047029160415
-0.006968655081067446
-0.09288185978800148
0.023369866781842295
-0.04653170060670386
-0.068822680068511
0.07203043960321541
-0.02599126294288629
0.019126950246737738
-0.00788178130950607
-0.02601987608265882
-0.004687874613675854
0.10641120958643799
0.4714178966603172
1.0304063315409797
0.48588072916207103
0.052070877278546424
0.004721038910341511
-0.0007186778938829933
0.10494550273622982
-0.0704454004330549
0.032003488322619615
0.04662189013221764
-0.053320238459480696
-0.0034831588312984746
-0.01069087868327248
-0.026340912096830833
-0.049871508655358054
0.02885986924217486
0.04222813498089602
0.06068592437399533
-0.06171969718621713
-0.05631077981230673
0.05004835128357249
0.01047878874684317
0.07832695751994528
0.0013880168749424078
-0.031102515208471876
0.0035171548033255673
0.022920727930357977
-0.11121155584716017
0.009148149466078349
0.026211147226192832
0.046521402677619346
0.024486685540803986
0.021707732885308285
0.07465644108375533
-0.08031550313679969
0.05500651756335794
-0.009596764940209486
-0.0466532230301219
-0.017280157591760645
0.017643438354963997
0.10031320084468981
-0.016299635381594933
0.07138996031299506
0.03004480441794464
-0.04798502525622695
-0.008174151735897424
0.07548959867656886
0.011107353179061533
-0.09445454745217882
0.0656802525505652
-0.051389621712106495
-0.01015782450276631
-0.06423790664421021
-0.029651930820081093
-0.005514789236032358
-0.03644958564877406
0.07093791822391496
-0.1000025445026726
-0.06336620370184878
0.06523043286773215
0.05609960888521958
-0.11420670094385653
0.015685820075759412
0.042652319977488425
-0.011278930664862807
-0.05229977197200957
-0.010329001914370476
-0.03402548529759081
0.034141762096415
-0.008835677919898503
0.039677119997977996
-0.00312774059706584
0.021004806399779384
0.031146616200154322
-0.04532063119483751
0.012258081790859535
0.014552982816960915
0.04183216263142618
0.12249522207186528
-0.03981803289049851
0.028898802756394167
-0.07700478788920812
0.032432196997230184
0.019342464928477132
0.1605161141151646
0.07643984618762245
-0.033178918601383355
0.015309968108295921
-0.010966609757271581
0.0022101641721058015
-0.0014967742077489517
0.012793652964369562
0.07737748423781966
0.06173480162058845
-0.003048736544393515
-0.001647142858674783
0.04668217240542671
0.07632248537730478
-0.03808633440514783
0.002498135431973589
-0.07985994619380399
0.01039882211808607
-0.06331859543710013
-0.01271631604134328
0.05800107391410752
0.02928640835554702
-0.010909658045122284
-0.01860935272889473
0.08061644521709907
0.013408967649446055
0.04386860932998626
-0.07832356992429418
-0.06905482124212174
-0.027908968115363905
-0.0015887507841468966
0.01173741840971294
-0.032626424992980546
-0.017410285608551415
-0.03380302188237158
0.06144096218857188
-0.063310546518163
-0.007694561403104958
-0.005177025449547721
0.05205741768963373
-0.11490458410150735
0.014863827392968047
-0.05023581364666364
0.023358126698195862
0.011292844803886452
0.0836997628436627
-0.0031656668150427817
0.008200042195776282
-0.01378915569535286
-0.016619904939176956
0.01661572793920976
0.03529896574113837
0.04277591297336416
-0.01965873306500425
0.03370786656510255
0.05307592869297039
-0.11384552363548228
-0.08468952007695038
0.1659610509340318
0.001610897746329409
0.004190524437035036
0.0018488962102717146
-0.01097122378567454
-0.03864336704797545
0.05137922533402816
0.046373848496407744
-0.05472069461740342
0.03498190420146021
0.05304400782197737
-0.04960101072356165
-0.01463497348653094
0.0956002296194413
-0.052798664577130776
-0.03759387563831052
0.1738304490160782
0.4381838108060665
0.9514033349478067
0.5283150934944123
0.11824855285720555
-0.032094554353304064
-0.04723810834706679
0.0496865068856682
0.026578299694958615
-0.029702399080224897
-0.08122469643394442
-0.04375129620189769
-0.009771243697131764
0.09206848788246742
0.01470871346382531
0.04831757326198246
0.006303095486687698
-0.06566614898187555
-0.05570929050105684
-0.012899620118732111
-0.07793384671325705
0.07457010096936743
0.022310443329313086
0.05415491162164282
-0.11061556371934751
0.10264629480537389
-0.004170805107256144
-0.06737012034826896
0.03485239270286434
-0.06774161319477284
0.03219527990388057
0.05876536109410535
-0.05490819149324203
-0.03147250473745931
0.03845565554312258
-0.0922592581231872
-0.021233437992397096
-0.038308944194715706
0.11733419563572285
0.01327248048546949
-0.013329460264981042
0.05916802082257916
-0.04703778795092014
-0.004222957083079192
0.014613959165118838
0.014823074843883736
0.017802260364291927
0.11365564864851048
-0.004042583340312566
-0.01555094554408312
-0.013898880623110295
0.06404059157169247
0.061767973168138604
-0.003186960660551596
0.014359340427866544
-0.029800525450567435
0.04382552407884509
-0.0007805852708577272
0.049258127078052105
0.07275581461237136
0.057294999180961204
-0.0534827723951679
0.04693127497151142
-0.03167343888312656
-0.0719216505114443
-0.05896746987340016
-0.05832579679359273
-0.07556425932159923
0.03025083206093513
-0.09981667981637239
0.025708635664843306
-0.08447813779883527
-0.018000203301990324
0.014310693589674567
-0.08107835888812402
-0.039418069840785205
0.06556123364523984
0.04455704014702638
-0.025411991451587037
0.08910156279138909
0.07718625739596485
-0.01485480291312456
0.07317590146811538
-0.014987317236819571
0.01563097871785204
0.03183463741899134
-0.0017118650658909766
-0.0061834799865905675
0.0474665428875213
-0.016303963411003968
-0.06631925953822358
0.0661537043577592
-0.005437463612635626
