ecg
-0.02350925864393477
-0.028445990655558268
0.08217858298942948
-0.07789699472544859
0.024254923117077446
0.004299324750492587
0.03753877522133091
-0.012260809311576179
0.002497289532239363
-0.044704177657114305
-0.015944190859235527
-0.0746597249171723
-0.04537324775438461
0.045461796987174424
-0.05544183823411247
0.01066387020141479
0.03063016423783868
0.11715886332960751
0.003169391622491236
0.06672091009165053
-0.038149853504024854
0.021346057612985494
-0.023348218303677174
0.020928308758713574
0.019652439464497476
-0.02827051968029349
-0.05930811983643111
0.032238602466909475
0.029396483978221494
0.028589744868132035
-0.04181556786771498
0.0081019764401606
-0.006919229010610846
-0.03324870526937818
-0.06901701084186397
-0.01036717527979697
-0.039439202111848225
-0.012701711737261033
0.09749510666946466
0.04776976324619289
-0.023924579630406093
-0.01281512812895979
-0.022529905967040312
0.005997563831144177
0.07775978608450063
-0.0017225238048216047
-0.018997656607549766
0.06031721411052365
0.007421233962770076
-0.06824488619327002
-0.07294493766648626
0.05715904480242193
0.06019082824049368
-0.08705085626147875
0.010608849839821764
0.05255784575474523
0.04699216812869031
0.0534691708387987
-0.00015592186540105588
0.027394987108246012
0.0008699896483360377
0.047734844790490005
0.04949002822609308
-0.013757464159185058
-0.025420598206390158
0.030349801189867045
-0.11452715115204817
-0.0007559889170452784
0.0018057599661888302
0.018132224790319507
0.034043735476656505
0.03734710883204114
0.02022987307319177
0.00822373117128801
0.01492463204611736
0.02207540035742228
0.09582441453020737
0.02059078878728353
-0.04951402827358966
-0.1352936365840818
0.015785749587688483
-0.006499472971009727
-0.057470139670415754
-0.06098768733058259
0.0009418730679349607
-0.011696239650170553
0.05401585111312451
0.014725530501825757
-0.035386478020024585
-0.044508765673031275
0.04337784963466752
0.019983961184659747
-0.10391388211375562
0.03145694237480327
0.01564174898962335
-0.04166498234538018
0.04866618662013106
0.03701643912157025
0.10377678934610035
0.04584102053059777
-0.012199781960669554
0.002352454749680823
-0.038347505967254336
-0.07260587481237211
0.07508816774097331
-0.01985599854381905
0.0004654988981721821
-0.05374475577322723
0.02513758744208391
0.07240906867327988
0.046432049771112476
-0.028514053827539673
-0.05679552240593042
0.004734209464470644
-0.0037529933249328233
0.016940176300052612
-0.01564829290655969
-0.05462523941800978
0.0035872081006953042
0.033172496947443154
-0.025664156066924876
0.07860400901518844
0.010463520621688947
0.004334655292481163
-0.02700990304563335
-0.05087487437511984
0.04811084477953845
0.029246889875539153
0.06460911056531314
0.020596428482919416
0.04802442928664144
0.082968100429061
0.0024560900020189295
-0.004505831677063526
-0.024230379091970365
-0.08792137036181358
-0.08821143718924328
-0.05007166814866973
-0.024668174739511967
0.04232525610452534
-0.060064299936036916
0.012671035251359722
-0.042340257294248784
0.08628765273015589
0.09492301435235018
-0.0019917403527257727
-0.030307494937535602
-0.04136685117618802
-0.002003603679185567
-0.03151627885193289
-0.15304421497255707
0.03968147151715524
0.029129216283924987
-0.05087131638069469
0.04806113824019705
-0.0031024704899093886
-0.04191557612052333
0.004371732562447993
-0.032800488217995506
-0.06977649371272239
-0.005729092751204434
0.0025537623027712102
-0.015870087021428555
0.043810067455484075
-0.010492512175443473
0.03372748700271659
0.00022039472141181235
0.07843586446068085
-0.042527811430312944
0.022177913274001315
0.013447666998443936
0.025595070641193485
-0.014118864513065658
0.0718104669354225
-0.04751575251914996
-0.03675173661936847
-0.08220245879950737
0.035848896302353696
0.03117649260222527
0.04311646152677112
-0.0488436645485177
0.04934892599327474
-0.04183118213115496
-0.05547309095099482
-0.06299161063955754
-0.07215076320806436
-0.08649823854364004
0.03719515648764631
0.002121007728338601
-0.062134398115873526
0.04287801967351906
-0.06716120448465966
-0.032003106562999616
0.038430429689000956
0.03043969977470323
0.01824804682257117
0.028004364870756072
0.13871505400655496
-0.013686825979380896
0.007269964847079102
0.031901474431701375
-0.009292366524230804
0.08685470977530067
-0.045473156548228255
-0.03356791093433792
-0.058487442671105706
0.009890391555167627
0.03234987743873816
0.001270650226266665
0.05219380572082202
0.0019186763113664736
0.015889818511951103
-0.0020151921828284896
0.12643782916781088
0.5464814937115752
1.0289532894448479
0.46978983357214066
0.04460898670716307
0.019788714906904842
0.03023246536294709
0.044301933286264375
-0.06756450478609842
-0.011847433786052545
-0.04120151557193401
-0.026942079050126147
0.048512298588645274
0.007288973494457271
-0.08123376350449485
-0.028355880996076555
-0.01639899044468841
0.01942263210285177
-0.03303382913349101
0.020225964152846436
0.045381468242312664
-0.001316401411985894
0.023465854906094152
-0.008255901695475574
0.0072735533124734355
-0.016737017232727577
-0.04751855899873328
-0.06502485783839927
-0.012293109831572634
0.07578003593132261
-0.015163075237224363
0.017076744219878988
-0.011687867847045345
0.023463710334040884
-0.001797612882364163
-0.03865352942902207
-0.00795766415638279
-0.039331109588266466
0.05277410636364476
-0.03939186665442649
0.03173081648020797
-0.10180780551983644
-0.0585606803833644
-0.05717609415037436
-0.005367721150237003
-0.03895684328225922
0.0648464331017203
-0.010292846723253542
-0.03516824582549171
0.0017161976330376722
0.06430188220168552
-0.07797412727722985
0.04914310480683437
0.08615332291689501
-0.0008629979219961112
-0.025233287629181644
-0.023218163661347425
0.057549836285766265
0.07890018707724969
0.048061812483822276
0.019442715803532327
-0.04704195576170908
-0.06985900407696034
-0.005660895799127482
-0.0013545700120570511
-0.004578801713479552
-0.020760790650913723
0.043286461104300684
0.09058414521147032
0.03236486797425663
0.01846678357387124
-0.015743187860119908
-0.07265760365117169
-0.003514153216408798
-0.013847280302274903
-0.11213496615517977
0.04541516976692929
-0.03239639612122305
-0.015229194491618477
0.012614828702242854
-0.014831859225913194
-0.0031297687632174027
0.10240935347251318
0.0003773942713210158
-0.06252454088098729
-0.03299497054202174
-0.04028774647582269
-0.03342080998251222
0.02396548431721221
-0.057747087471778216
-0.015722214886475745
0.04309952077304087
0.033543843617764794
0.05181454203347549
-0.003714144873133495
0.008275738591703673
0.06766699577739775
-0.017039361699321767
0.07155549236176853
0.10068978818311909
-0.056954858199022074
-0.03211083804201746
0.04383984628964669
0.04483200443494666
-0.01509095658331486
0.08741397582478104
0.009490753728511804
-0.03532413655251155
0.05499359767479857
0.004937451466094813
0.06311663836715158
-0.0285461889428839
-0.004052193627772438
0.032334415176033436
0.12943243840233937
-0.0280189685667154
-0.016999052804240328
-0.06539080770289141
-0.09243436114195334
-0.002144733732696092
0.0061424792399264894
0.03748446093690677
-0.02464545517081533
-0.04863731431529683
-0.048369372899715525
-0.010901215060139148
0.08000911640592628
-0.07269911347909472
-0.050055408227348636
0.027765582867352756
0.016364447785242434
0.05000345106565386
-0.010992561364571225
-0.0022407328670895825
-0.033836915506153
-0.05587832263308622
0.13556291002611012
0.006352172601904677
0.04641194209900927
0.11667137672318398
-0.1029118967079898
0.0008855253861777502
-0.018271974711327042
0.06336024062358672
-0.0740261165028892
0.020466455932488747
0.04870982711149398
0.06773106048172992
-0.04704855451431872
-0.0038875004982079514
-0.01573632295031983
-0.05130328706669085
0.025587691824570505
-0.025902970299733888
-0.03599858130345279
0.049725849009032506
0.0857590869417775
-0.05639100479710483
0.06590441003280047
0.004824284579348219
0.058047426415761105
0.0003800796568017898
0.04328034518600232
0.046819640922858896
0.02255803863718995
0.09321648104208005
0.041413994656576913
-0.0912427793532905
0.02135370165619934
-0.020855007676941352
-0.02881748129877193
-0.10293919717975773
0.09072020643969046
-0.006478882624570872
0.033758021985612674
0.04443058454176668
0.030954039571849654
-0.03459471097419687
0.015651226546452384
-0.06519430217403728
0.0934921910895104
0.02744810225516725
-0.09947863405755897
0.00167457694937808
0.019984172428003762
0.030447520520151233
0.05202737382516131
0.002932605276191637
0.023949935198568903
0.025589265848139933
0.07351315485805812
-0.014747079411368755
-0.015131743035996707
-0.017672102046009094
0.019672814324969652
0.03896689882670254
0.0949881617542084
0.02306221983239248
-0.0031792036276904246
0.01893974499831644
0.01571307201918148
0.08627334275310591
-0.0035357406869792984
-0.0023802327833031328
0.01921434398976403
-0.1259151763739976
-0.030743571721961516
-0.03282496487973156
0.018884999030544754
0.10331049754923297
-0.01349687076028036
0.49377288077476517
1.0020569300412046
0.5380310018792066
0.09826694451390415
-0.029259248217192335
-0.03522988049511749
-0.031393499329353834
0.01611819767102651
0.07668035450493005
0.05603782971374904
-0.08244795581313166
-0.09139428583331666
0.012954194264975774
0.05133447789114649
-0.03740556538577685
-0.051751404830141456
0.010458721992101825
0.008023850079885755
-0.023862664866544595
0.032657898894003855
0.051357112627297724
0.0008994457922458905
0.05290266767441585
-0.10954347945543025
0.04236922383255867
-0.05019393394534327
0.06585099723314079
0.0010582159065625131
-0.009735004446560043
0.07133778058747269
0.05548915923927855
0.017177622146941986
-0.0016550437904427455
-0.06854798850442999
0.04269533220438684
-0.03392168709627784
0.0029189057656514466
0.011966645806247764
0.0314367650276176
0.08226803588899269
0.014101745562145175
-0.06746934418402402
-0.006048931309921717
0.09440175168461057
0.08141929860467448
0.0660677652306634
0.01577632703054228
-0.0765227775660771
0.07998158144749927
0.03681838250139082
0.01307264901993467
0.03460589537621492
-0.022894596923208187
-0.07927241977443578
-0.06985369623679931
0.00465468029432359
-0.014875102346476828
-0.03309538270768693
0.09710227465579649
0.03085813542065039
0.03255341983634829
0.10914274682549324
0.026883195294925406
0.09542224613537997
-0.09084694502048196
-0.0364751867723719
-0.019646459970143554
0.00037682548177456703
-0.010014036354826273
0.026451480537647322
-0.05524534015301907
0.08289561101675744
-0.009168005999096701
0.01767024612075487
-0.01856962088067492
0.02125807209472534
0.1231554026735676
0.016332380041794374
0.08327622928079759
0.01658589434851823
-0.006381784398590213
-0.048528134748259934
-0.09236438546265976
-0.0768907208285875
-0.01615112405870429
0.06347210222161352
0.03845717900774953
-0.0013332791297663068
-0.00861085786285214
0.02930422312712351
0.028280951487820474
-0.0875076554940924
-0.03626103140288171
-0.0010398596856579108
0.04481393219655587
-0.019951184830120955
-0.06147507091203767
-0.08976598189147084
0.0027386188157049827
0.026919772126985566
0.013386160034700632
0.07745703286673311
0.009810624389817694
-0.0819277073365654
0.04450834091267118
0.04863708980258754
-0.023185848604749197
0.09109162084907932
0.027752190590544314
-0.02628699646716466
-0.06904563427160308
0.032436220400565055
0.03881377453248642
0.006061127633901931
-0.09056442639523486
0.05130437156006851
-0.010779734210976017
0.02350219791868146
-0.029975486355736686
-0.002005199209739626
0.020845964064296535
-0.013347138546338842
-0.03028237830224926
0.02970427830464687
-0.05694963800081411
0.06507761931162598
-0.04326263984969932
0.03170183177002606
-0.006361997017214362
0.05576632279983362
0.016371831764294145
0.00796946563553915
0.030897515448345347
-0.04823634528070993
-0.005878172118827889
-0.054167580661791975
-0.019116476995747346
-0.09251112879634188
-0.01753054207521187
0.08262769808759152
-0.051112005242346686
-0.07978739720993963
0.03868055747196268
0.011530769274425944
-0.05509501089581621
0.004845166385385543
0.02760531792308098
-0.013893872049518197
-0.03239231602163718
-0.03694553139491868
0.06218391430225824
-0.04046115054619343
0.09723428431264895
-0.07475036355895687
0.038688790019794264
-0.020922898294872906
0.019488945803702574
-0.06659277573182285
-0.023160104701263964
-0.034147350224631674
-0.009960546317007442
-0.009905751144478997
-0.06945499272916736
0.022853578463462376
-0.012015146584051986
-0.0336146972824164
-0.032208711775470404
-0.005025870270129971
-0.09035572082773047
0.05346886363077857
0.0740222327322718
-0.006527235641385388
0.01936011007206366
0.05919295996187155
0.1373473028720764
0.02550444322922984
0.040182488474139945
0.040921851889687846
0.010420921719460508
0.06199158841829279
0.03526194266174352
0.06538822765456391
0.009135700159245027
-0.07096631752109495
-0.051847750790013525
0.014371086854191773
-0.0055790664977552725
-0.004704426958916345
0.02931248874784789
0.004426192118438309
-0.05149499908637444
0.058888920215562995
0.02227981089136367
-0.06113451360193768
-0.0026163920306333057
-0.05084513969428267
0.023645368059255614
0.0758268153527934
-0.06249688045136858
0.044921357106392584
0.02201812156544376
0.09187671724250426
0.04233939237952766
0.4823729219883649
0.9711332657154753
0.46290108747612363
0.08331310015522098
0.057649566827227584
-0.017692842154944707
-0.051468889677608126
-0.08648903649600703
0.1181124380722975
-0.04875092759751086
-0.025890718343437508
0.055244164500346304
-0.02638140983816241
-0.06734954555865079
-0.030748209523744137
0.01320320346330049
-0.11382830326153007
0.005190162871468684
-0.003850619585176895
-0.005584407078169802
0.05404131763169036
0.06482618273341675
0.013280402998184296
0.020363938353326606
0.013685786287469193
0.019355118529609548
-0.07246483559169083
0.0416718793909686
0.019063845628920616
0.06560452270968795
0.08015209723443664
-0.03934635238354597
-0.02685936516225443
0.05475731830449881
0.03138722794138981
-0.014419228833537301
0.0006698356300442837
0.043866935048588726
0.07181022982202538
-0.015157051121179425
-0.09481927781705767
0.022808267215746667
-0.012129376232411386
0.0015310222887173768
0.029305695625168195
0.05713213811635995
0.009505595306167278
0.03957597766577356
-0.03625346117816123
-0.07011785533807388
0.004084248362420564
0.050205420068938904
-0.021298502489108143
-0.03454375685603018
-0.02003441081044299
0.0899181088745039
0.0004981406999062581
-0.011948031708356151
0.03288911733809869
-0.018098938247861907
0.01829868267125923
-0.004345686294496073
0.01934229137768591
-0.06861200394160612
-0.004167923094647438
0.008989706133458375
0.01661845042778921
0.053060880756474874
0.01857083976814893
0.016424006483790866
-0.03687953868718493
0.019860477439810634
0.017321014176058386
0.004992403036212456
-0.005743663957295293
-0.03502188065717254
0.01745063833865825
0.029020536571843687
0.08143818955392909
0.0114357423229068
-0.05313105019532467
-0.021942855809358883
0.08497691630064358
-0.04858132744541917
-0.022538489731982792
0.07065675550949478
0.011053892047820207
0.020457823443094547
-0.016812957697900113
-0.012728916415678785
-0.014457258611980446
0.0036045067488298718
0.003631195644263858
-0.007427637177263137
0.016229242617107936
0.03631518335001527
-0.019165827942400408
0.02023337683440958
-0.039608928837777696
-0.007189907649217417
-0.03500900005543186
0.05907306945406489
-0.06601758229718638
0.00939107568816279
-0.018436705356263985
-0.07239240387038896
-0.035951589085375824
-0.03908407047479069
-0.01937944375075667
-0.033023051016980186
-0.01580265369670712
0.013064434592137342
0.007042076625736538
0.12105342152047567
0.09313335110054775
0.03776811441892097
0.06247113098648574
-0.125426554766061
-0.011023060280880681
0.0694776941254333
-0.06904621177756032
-0.08103585612221581
0.09134251089882145
-0.0007840946849230837
0.012452675923084956
-0.05689664370074609
0.085903292012421
0.03280503321929907
-0.02649195847879604
-0.056235244716183824
-0.0679069644073964
0.010988705788764298
0.026129854173283007
0.0022595228603490233
0.004688723744677017
-0.007859954764187192
-0.03551319891548946
-0.05283066403634998
0.0021803537456710417
-0.027610654258649565
-0.027859848755049755
-0.04771891336012171
0.09755052840520739
0.06563390897282755
-0.08260339521896598
0.007035584423484394
-0.028354240361012237
-0.11265907258265505
0.02574080988865526
-0.008534862378570858
0.020910768384843112
0.09692041242725727
0.06356785592655895
0.05784861165730837
0.004615587164885951
-0.027323782326086805
0.06434449047044084
-0.005460723630143186
0.006400634322455558
-0.013397741083202994
-0.027386918241150995
-0.011348908186498655
-0.052962595225965414
-0.05205429409690776
-0.027341910704564695
0.01872549667774138
0.04515873953950731
0.00042955313880682264
0.006924823289818665
-0.001787412200661312
-0.07905959873655709
-0.05342790677436521
-0.05402547621721281
-0.0033800572369816467
-0.030720610007250113
-0.07252521010468992
-0.001319642231138683
-0.029949441020870826
-0.04092751374502872
-0.07497442039470416
-0.11807156572573048
0.03757170442659372
0.05500858346485374
-0.031193828776577254
0.06401967381694405
0.03742316576742517
0.0059028732253821456
-0.0007385973761809682
0.010066670547762804
-0.060710784511119865
-0.020661142985554926
-0.01569631117833078
-0.007515511640324499
0.07786877412790008
-0.024981778694593657
-0.019876507871030888
0.026825430534326008
-0.03049447868826895
-0.0010830145123221402
0.021253040586711965
0.06656007849767302
-0.02287474889877257
0.017183380260789523
0.13795783632873468
0.5500024749137201
0.9197500787405022
0.5095948831849031
0.054116456782303105
0.007652151464443051
-0.016147458871411047
0.0024349117707622497
0.009561435368022515
-0.017279325001426833
0.13918680689512344
0.005925729196253448
0.05890492184093418
0.061868917708394214
0.03424055418564671
0.016047058709812333
0.0005924626437551395
0.08426479958465638
0.010280614382862945
-0.002317715337996114
-0.07389569261343959
-0.013799349866849296
-0.024759966555146718
0.005152389582597938
-0.0684516256807418
-0.077369664142447
-0.04666557113097822
0.0011996831964248794
0.06525019949849259
0.032793642822388856
0.010246359698981519
-0.07181714490513831
-0.005270439445839846
0.018158760760990066
0.04210286209326386
-0.02166653802032063
0.10424330985966455
0.09426925308101561
0.07972678897505492
0.03218009930132267
0.0800733397992416
0.03086406630303298
-0.008556970835814344
-0.06661758372661637
-0.0381386141728363
0.021992671639697738
-0.023021122481597923
-0.00924809162704108
0.0042274796110697965
0.0036740551013481355
-0.013370243637438993
0.11983664101003466
-0.03490161403710081
-0.03574799952994854
0.020358775770180852
0.005825922568305778
0.040982652560806215
0.0744104557417904
0.09056678908463922
-0.01863349633728499
0.010433042613815162
-0.025588831873811554
0.036523506972593496
0.03164053914842948
-0.13214557092492707
-0.05741747044267195
0.06789502886743129
0.03709640369051944
-0.018695226415232438
0.004571404325967184
-0.015055334196431947
-0.043470626697865805
0.014614714400538055
0.026528665006032966
0.02926943729950346
0.10438091106507659
0.039270230549512924
0.065594289317053
0.06653407841993873
0.020645736104895878
-0.0415998530930249
0.05084987672767445
-0.09398500502179641
-0.016315442077902288
-0.014991652602542885
0.07268038767825362
0.00032147372850423753
0.0425551552826472
0.026388518140604347
0.01894152866469439
-0.06331669966300311
-0.051460401381309695
0.06877751986381618
0.0007331155906080189
-0.06683890755420883
0.0381035893248837
-0.009855907258312754
0.019096653398160354
0.11212615865775087
-0.05189107443395213
-0.034001684968135215
-0.050833653213510945
-0.11548309028704923
0.03539408963371715
0.029963025556092933
-0.04786801038862359
-0.058787561392758106
0.03758258852076649
-0.10854450258157977
0.05398687743113874
-0.018590474834496374
0.010096944388875713
0.002700672430456705
-0.040697830173547604
0.05662813645526549
0.026554338203612384
0.00127251262822749
0.030402172390705414
0.03080476122873448
0.029029625636234013
-0.05034823218949008
-0.09898874628702792
-0.06062179878266678
-0.016858910904788207
0.01894096938881968
0.025487013751321303
0.10534892886716658
-0.07345024632754225
-0.03997993740277109
-0.015937756821371645
0.07342017843249114
-0.03414656947063776
0.025099401134928263
0.07055402477393435
0.06827319837097261
0.11158044606702039
0.013425155341440988
-0.03124014654856415
0.04129750030422313
0.025935134840149077
-0.05520906334711853
-0.013933460587844324
-0.06032193283218308
0.01634307891500294
-0.015028196029118798
-0.013864796869029678
0.02447640692192365
-0.03174238528030398
-0.10402228164487073
0.039379815170726695
0.056830231139719
-0.039913411143549765
0.01835241104710082
-0.02017215470378675
-0.09017665024190848
0.033085988006310484
-0.06845884711931093
0.002142738795795935
0.0485419740898117
-0.06408139896971159
0.03549731565266216
-0.01712833825925902
-0.007150994865775372
-0.0036156950271053335
-0.021853386873068502
0.005085581062126783
0.014882237490667683
0.0834057694131074
-0.008528851758900457
0.017839633510442043
-0.07181394348768765
0.018626362022233476
-0.08697963462734498
0.037391381436558624
-0.06959835894798748
0.03693231960678844
0.051856860376658154
0.06253564711103603
-0.044490902250977446
-0.025456977798982823
-0.06228155724050897
0.045484745031382674
-0.12074273172550454
-0.05853609620120398
-0.006701611831939888
-0.05821166163427715
-0.06938623822157691
0.0002088559478509624
-0.0015577774740029376
-0.0566140358901778
-0.02230138432389548
-0.10314055648308387
-0.04287231652789326
0.02476697203680541
0.002344056277216632
-0.16490858603640504
-0.14718702143736562
0.05883759178929374
0.04482827630892977
0.04871516261136081
0.4553380135533455
0.9810040614834951
0.5511692742125832
0.04770144760815553
0.00604959592624925
0.03405498851386087
-0.107918141782353
0.0685267756693348
-0.031938636907227945
0.019113012223199513
-0.05512212121387137
-0.047120190492229326
-0.03307519172234177
-0.018931576211493037
-0.022320942927976012
-0.013714575277467767
0.004794614246897436
-0.027564843802003348
0.07687210451257054
0.06502158635620424
-0.0124503122903843
0.03337905575992118
-0.007447464443439262
-0.02111614936730747
0.0013174696807676575
-0.02715622185778013
-0.02653971086082877
-0.03479683889589539
-0.07029572614993827
0.07609594323679708
0.021347840590430375
0.09543251385578089
-0.025648022759485908
-0.011566312781787247
0.015103116434113315
0.03073218859296514
-0.06256902458571505
-0.041227038586311486
-0.03992294536076974
0.04645296404618327
-0.07411558417842302
-0.041240377323566065
-0.04807944031753753
0.05379793152115683
0.0023546731755745153
0.0016552910368117944
0.012728188969510477
-0.015138414481727173
0.05798036900517585
-0.1606875436318973
0.0010931227028511742
-0.045024843631771144
-0.03972545739073195
-0.033802224245316446
-0.03078896588006573
-0.03374591096378753
0.0013894809276988986
0.04973234927942868
-0.02801161254945593
0.11445698543106604
-0.03402728842454722
-0.015077693107231564
-0.005374920013885486
-0.009477598133424883
0.06714212509172911
0.0067402790271699825
-0.0071310282282607265
-0.0017236328612378325
0.001352619177219492
-0.06754966098716242
0.058891011567535595
-0.006178401732556922
-0.013971616108027702
0.03214382140628669
-0.043976835337692116
0.03422736561573037
0.06090826128636691
0.038486598565343394
-0.06605531073070073
-0.039764329167798165
-0.026971861986018805
-0.01650759630667022
0.06883682624943434
-0.009301659914324942
-0.009603619320108572
0.0546531438882142
-0.02518871864644115
0.014166419324272135
0.10163191123259825
0.0009606826050043087
0.043311687498054696
0.012819876596216237
0.04119395876521934
0.0038895086659381096
0.0595171159902762
-0.05752640940495514
0.0055497960506553316
0.019298116570026856
0.027374698841675028
-0.06955781474822435
-0.0008754786579682052
0.0023334270278551742
0.057374943880683094
0.005225166793508793
0.0323879408984782
0.0880959557153632
0.09344086018998042
-0.03646270307185168
0.003016307892524825
0.08130905723839899
0.017701762029405998
-0.14495747480025886
-0.0742512510798101
-0.0685172495547092
-0.028208842878907153
-0.0060019849191599375
-0.021348869907885804
0.06627844454078008
0.03886391514810238
-0.009734989019565564
-0.0025356199154686018
0.02648092798393431
-0.0035475973312325765
0.056831720115260866
-0.017486686113070502
0.05830531570271999
0.027255456803099095
-0.021837465797872185
0.021434798022918245
-0.007775659592465002
0.011222427934866634
-0.06669313676803877
-0.030805791046950377
-0.04675035030257893
-0.04382455670660181
-0.04025380923065672
-0.006386981008530421
-0.04436537371025909
0.02927529382664988
-0.04224308865578599
-0.03916389078391164
0.061118190663275465
-0.057230517905537896
0.0009065827186127535
-0.004660210015531826
-0.024773072482941604
0.015464525375923969
0.028498074702097927
0.016217074831831484
0.03328924117299233
0.0050669110921495375
0.04081109919372088
-0.12638516130558314
-0.032004458645582476
0.05431382698991924
-0.01876479957195231
-0.026038673271587084
-0.04495623861611814
-0.024557720965976658
-0.02319707951120619
0.19359842544590114
0.09567888997693372
-0.03291768423855606
0.034915469220002875
-0.08049330907420753
0.026477001723390983
-0.12633185113721299
0.05622241776147276
-0.032109976013857754
-0.005679382720691458
0.013593690468283078
0.04934809535052195
0.029509866362327428
0.008821559705477804
0.0072793284556992065
-0.07306993155929728
-0.037023367104090855
-0.006459039690413755
0.04993468092143508
0.048629293905179276
0.024921772371466762
-0.04440221678072739
0.006700224878696909
-0.025450597923235303
-0.018435518240764757
-0.1177505251057136
-0.04184786347482128
-0.07078859160345632
-0.06463242560937597
-0.04472457660484305
0.04150556134174289
0.05109073808690412
0.07519887604134408
-0.023695163270404454
-0.0549388937262775
0.010893672361743642
0.13143208036668821
-0.019612785830584657
0.04794071655886653
-0.02517475916412862
-0.03617510577327748
-0.0802941261966581
-0.08922097724832995
-0.03453150189490939
0.01310549521523851
0.05025819939411433
0.01070614014665685
-0.028381080398303477
0.042616103697256054
0.016907367018643125
0.039082376911901535
-0.04306117731840199
-0.037755356509959904
-0.0191553354931414
-0.023902073661324463
0.051613147893376655
-0.04305302900202382
-0.013966747979420198
0.04487220388059722
0.08306381037936879
0.4809925235310566
1.0135470090490628
0.5088578203631489
0.1423159433332836
-0.024552152330737015
-0.0020914977097569883
-0.12463499677496162
-0.08532530176164377
0.17122007328754396
0.04194051472267686
0.07855537632585916
-0.013598303451892708
0.08979928756257087
0.04275519915553158
-0.006870508265934647
-0.05592024867368476
-0.1084643569943325
-0.006672324602555771
-0.006528669520853721
0.0037797224620267364
-0.08821969425595791
0.09604465021439368
0.00983206112116325
-0.041658216057439856
0.027159556845181926
-0.029947533308922344
0.049495376810080476
-0.06681143185753578
-0.024372666364334942
0.029765291012833962
0.025147448457646798
-0.07002469633153538
-0.054576254491787095
0.004403711420739964
0.0473467712727024
0.015659481347590244
-0.03404882503694785
0.014534862877927993
0.023711774485278947
-0.046658770495366875
-0.024772886172189465
0.0003944858230847908
0.012005707364298832
-0.02060135813365871
0.027487020186468397
0.021709332133182227
0.06420020216560339
-0.006856810619925557
0.034707050632085124
0.01439897499279843
0.017317592866928015
0.020430142413908836
0.024301236305374063
0.03228912454850504
-0.01513109630751568
0.051585994298084525
0.032328209601078274
0.012089314401410032
-0.018958099275941265
-0.0030900434475243602
0.027835914449175766
-0.04191656869884832
-0.1341269628376306
0.06357032295862403
-0.002881130596000637
-0.03484901801847122
-0.023738013423806676
-0.020428243785857492
-0.05714225767692338
0.08464638185995492
0.07835789369896734
-0.031148985155606726
-0.01503911539126191
-0.027920302884742176
0.008922822523980333
-0.029282920527485868
-0.04387165038008439
0.029018073488562342
0.016206253421053887
-0.016692666119164284
0.037293116925929196
-0.1127321611167599
0.05026314848597821
-0.006803305596449572
-0.11175699672103688
-0.06102060561457139
-0.13095011100911533
-0.05174084014340119
-0.03869792467792842
-0.02707827676817656
0.006286232437048768
-0.06866548502362202
-0.04736878882667588
0.022848014718976562
0.029304806806896257
-0.0839098619741745
-0.021571841319447622
-0.03223725871852583
0.037583411338116324
0.01847805877709493
0.05799767503003031
-0.007632065155603409
0.031940280780101436
-0.024046227477598544
0.07395253819309301
-0.028512875057860744
0.03659268886565956
-0.08549796433247701
-0.008946769097653729
-0.02101483493095481
0.05638025919707414
0.10775181187825689
-0.03409379500178623
0.02857872506308769
0.04125223886164263
0.0029659542129478033
0.01809773368974767
-0.09465862383200628
0.08864713101115412
0.11618214046889759
-0.0430055158273234
-0.03751246757787581
-0.009351693753266712
-0.02063198860637377
-0.07211876517223997
-0.013079094124588964
0.05038458434896412
-0.03194037514686762
0.0003978836082801202
0.0749645329695111
0.07859188513164125
0.05327777923122025
0.009661714396056273
-0.04506003527230884
0.10904776182020126
-0.006752275749733531
-0.09115886578207805
0.0159142739068447
-0.10229164688773554
-0.03973617485377487
-0.03374817133624429
0.021817807967968297
0.04330123477488633
0.0754274867870592
0.02036728354250646
-0.019494527426962182
0.023622344184677267
0.06878129180785146
0.034397638460669885
-0.0674395750622715
0.06260340514564039
-0.06487715550664971
0.07726125581456039
-0.01733296206122422
-0.030847798123878608
-0.05342831919853306
0.0032516348225575253
-0.03982011440245051
0.12018422592057124
0.050724408551755445
0.03609812177607925
0.023276195246846012
-0.027456633941301746
0.05966307374081947
-0.03309115980163391
0.08580373101625872
-0.020090922377039747
0.017734048616118384
-0.024539602730447294
0.03551115458027133
0.018733920955781868
0.006257813784075779
-0.08262139236423534
0.02323805452164175
0.024360221210029252
-0.011629085717239933
-0.04631130861898042
-0.028905734905307207
-0.05763319769017347
-0.01840164598909554
0.06924336096051051
-0.006994535228578637
0.10130163900717991
0.055488773727856044
0.08010193510518471
0.04943885497182681
-0.004594144827219684
-0.14674728148725236
-0.019810081239285467
0.01437402860575105
0.10356702237474119
-0.002435720158262173
-0.09571887186858989
0.06334826251833664
0.08022147172487835
-0.015922949349813257
-0.020437528438083954
0.00915042711029941
-0.07357862021078608
0.028802005287357074
-0.01969069137931477
-0.023649862143886962
-0.04479056120723562
-0.04311619268289413
0.07178059749097934
-0.009335104846710586
0.2570148709246133
0.5318552514738796
0.9576649004273521
0.46912929953090815
0.008956650337571564
0.0021379869203629587
-0.015449065355249758
-0.016800325629825457
-0.07955906728905288
0.08679111258184381
0.023142398499339627
-0.012074770722645603
0.04557360092953499
0.014192209701229197
-0.04197367241955793
-0.021394088731768623
0.03262572308629561
0.003936703102639899
0.004363190790580534
-0.06794738530677664
-0.07172704144970406
0.03801491179219275
-0.08556578344656361
0.05102959126140199
0.08678635611199971
-0.09590085953759529
-0.00495645958279574
0.03195866858046625
-0.08342321641718228
-0.047792116575957416
-0.08502028045658554
-0.04552367060980491
0.005488254074688451
-0.09019259278772802
-0.0033464942056884435
0.036193342693797495
0.027462068059042055
0.04821510913631861
-0.011450258872169616
-0.02702416254309097
-0.09861771697336717
0.04648435087124022
-0.06029877747776483
-0.02346291245909103
-0.1076243564622961
0.04154290271080692
-0.03615443842586505
-0.025753821136716804
0.07168750086538316
0.05610166553658255
-0.016104725042435913
0.002351448658094829
0.015425949617431737
-0.08349220381534998
0.030377219331736562
-0.016337814113098884
-0.027501231836603954
-0.05364154604136301
0.0016205564513644783
-0.07853603737737415
0.051017779997025725
0.0961124094608878
-0.039824851986237024
-0.017892424789754356
0.06633831234383623
-0.07000107959139405
0.08727260678488569
0.004091151717150784
-0.010209309985774545
-0.03715446045829323
0.06283958092606334
-0.010449120332350327
0.036771128987218064
-0.04965559983749324
0.061157148099807934
-0.06958083887889598
0.02636183111342218
-0.08318906822654855
-0.030856336395061662
-0.003541269608700431
0.023490113822572697
0.008004565695588784
0.11783146220482364
-0.03942038964242728
0.013082299197260248
0.005944759535658988
-0.015337347793669102
0.009445962602279675
-0.04190205505060438
-0.05375509165820657
0.004396082075389921
-0.016237268480083673
-0.004600525638525129
-0.0589342502847681
-0.00909590948618431
-0.12069235630998254
0.026914494669818018
-0.07091789826525066
0.01990353234341027
-0.11108885545207643
-0.031169778652457875
0.10475907469181872
0.010907133168192302
-0.030018817051979837
-0.07789746382117768
0.006678372030914686
-0.0003801468054514283
0.013780351015267343
-0.01552205752225151
-0.02408224732516213
-0.05226745571683929
-0.028565645783531535
0.005427740456879448
-0.05983110954895408
-0.03542298176208313
-0.0010661403113916008
-0.0691037313288023
0.07304305758766692
0.012202831684393636
0.041447244924027404
-0.061800351584819925
-0.004618189722970599
0.029256918138536488
-0.07036095971840706
0.003372929968942442
-0.05018556037557862
-0.018204521050035855
-0.05527571529098624
0.021606409712322985
-0.064717343802737
-0.03832027314394784
0.0356513903557984
-0.07998310871760525
0.04983246718185186
-0.0525708708914662
0.0058719077890016895
-0.0122919829884874
-0.05133924913424002
-0.005523376854351004
0.06410240980318488
0.009580157292205143
-0.003082435950563287
0.002533821593864515
-0.14061524826041596
-0.1331883723513738
-0.03582358581305097
-0.013051953212946946
-0.09373836303454411
0.057122149056083496
-0.0223022689000491
0.06192547167881599
0.10517438904171612
0.005606995977056835
0.05334716642025331
-0.054313655820607334
0.007651829137888489
-0.025881473919272105
0.03596180538965934
0.009107534753222353
0.08640700669458401
0.015818207952549124
-0.0025699565895394277
0.027278539782253666
0.02121136364738299
0.0029258819208251388
-0.049750131556029135
0.058927758965298865
0.024093799521918643
0.026898736824255188
0.06465315489043909
-0.054878601080459034
-0.007711099794345983
0.025164811583118063
0.022212055735238934
0.09643737666186507
-0.01237824891478942
0.008736373598622782
0.07775160617687825
-0.04245256306133535
-0.03538410719562409
-0.059489722392127846
-0.007759575983562857
-0.013549302563626601
0.02796260808930788
-0.00960320457111718
-0.020585504860966396
-0.02101832450360525
0.08081855726506382
0.004574960382211017
-0.06955969273218476
0.006287058267793917
-0.0033717580345305666
-0.0016035434145884422
0.03132824705135675
-0.00597577542012954
-0.0591035312191544
0.039896797355973984
-0.012701198639276462
-0.012299145993058045
0.030419252548000115
0.03916695425663567
-0.0018651641634396462
0.07598386508825428
-0.05304441750438102
0.0064551788927705595
0.07269641324434477
-0.05266276316163132
0.04664726823373605
0.03775859796463477
0.02983140409329559
0.00445751322348343
0.018153942128249573
0.02401933074578857
0.09084955297916997
0.5770511607328802
0.9995128776427734
0.5104670386059156
0.11296825379711255
-0.014426234888716364
0.03524461990664164
-0.03273428441766381
-0.021015873102831966
-0.04811992399195023
0.14104834198100785
0.06675993917542772
-0.06261995285994687
0.020037409137454353
-0.008617037465694711
-0.061120157000696985
-0.0680179235361137
0.022494750724038205
-0.05070052019012943
-0.05054616370165399
0.07661218340599418
0.009218624658174397
-0.057310336049600764
0.08164282306829343
-0.12603291026584162
0.12323736900271672
-0.09138308459817338
0.001273691735473998
-0.005012137500517221
-0.016342026305675755
0.0035941687927134843
-0.013381908498650853
-0.049512308585405486
-0.050319094628668515
0.09903507136143433
-0.0921771721583186
0.034241763178287726
0.017100675647792676
-0.06779452285570914
-0.007937417428728402
0.04449594756714796
-0.02074268593458479
0.026322802623133842
0.048236135722165036
-0.07220736498417145
-0.019384940792164934
-0.05208342015838233
0.017031184633151796
-0.0853260670848283
-0.006264609400644829
-0.0474638970371407
0.08408162786177414
0.03211652818989352
0.01801409260339239
0.009532952298989886
-0.029002359739914548
0.037918380589286454
-0.006710875537874625
0.023234166039760737
0.024302003047003813
-0.016720743554523163
-0.0412858879419877
0.0214437464684866
0.012215365661476048
-0.02466395081091756
0.021529138598218048
-0.03584650846528271
0.029947862027521234
0.0060302690003426335
-0.07785099604880509
-0.06286639730467493
-0.04630757027321091
-0.03345975466270195
-0.032166913918392194
-0.11195561513383481
0.04668003498504872
0.035488714671408426
0.0025080084043332743
0.06984902648251849
0.011687347804100853
0.006498911865373495
-0.004636477097608489
-0.11313118691921771
-0.021910075313929942
0.11094194736287166
-0.04239453259556646
0.04709282954271824
-0.013803031449998601
0.008322677289412262
-0.04076170616807946
0.005641013735647547
0.05447117256521409
0.0249795719421201
0.026284883042554774
-0.033070649366244834
-0.04578627134857174
-0.09311173528377516
0.02986550209913648
-0.03837188477495511
0.053348793231699665
0.011585885800021239
0.09469892510731395
-0.03490586427011248
-0.045121327330111136
-0.0688765281932756
-0.03308071218997672
0.027308618058277192
-0.017779639011426967
0.033885213399317736
0.0329543158736072
-0.10552089692855293
-0.023814640129324254
-0.0988598706987246
0.03810937481577864
-0.018107128332482566
-0.011008756847370425
-0.052836410315621224
-0.027201715542871353
-0.023837940176993425
-0.09496778236357205
-0.07361471607483766
0.02845365069926395
-0.023366836359777866
0.028968852655581523
-0.003423854866148993
0.02152265861346325
-0.02523876360700232
0.06539739444945453
0.012257403096654875
-0.07388533259889359
0.05862307036486628
-0.002340866930693108
0.057197530994362346
-0.010914874529730494
0.03158380903343599
0.05477039053450387
0.004929562024688741
-0.051774268342048874
-0.023114465552148102
-0.08641767085445806
0.01319373134989689
-0.024610125307825435
-0.0520214479062304
-0.08994557737986542
-0.013965089866431366
-0.07570728544355308
-0.0040060378620612805
0.047905404930153356
-0.036263721564969736
0.003759302701080928
-0.02976720421517159
-0.04717899793460744
-0.011122019785685477
-0.036825738310276364
-0.09119064274572448
0.0803700509277312
-0.03983144673441554
0.051290602779603504
0.031902878504232096
0.02958328892176303
-0.07212183552962674
-0.009743361972943315
-0.01053593172128598
0.020561500857905816
0.03166665089968809
0.0014363230226365096
-0.0010333231759804293
-0.08036823345973915
-0.0203258690166696
-0.021290060624416823
-0.08702789632401718
0.04246459559148866
-0.056918289494929476
-0.0242937673683997
0.06009399978320637
0.003097081694558816
-0.055695593542924575
0.011440937156347622
-0.007965424682020354
0.013177800751905281
-0.0803206144218534
0.012752175199685682
-0.050998096730019454
0.028587994630109956
-0.022646297936326637
-0.08292989164858994
-0.10389210973822671
0.0872629417209748
-0.058557182087043504
0.04710046819717924
-0.025985410709153285
0.07781312551926887
0.016029346848986614
0.005502784359930832
0.08634387953900292
-0.017167459568302634
0.001133346874353022
-0.009436751842371386
-0.0454794876434152
-0.01900714030610691
0.0049225351577976036
0.06200371568633622
0.05519933146061491
0.12886197158313256
0.48531299832998887
0.9719698742637735
0.518776388245177
0.04011199782826539
-0.022592916975968092
-0.049151790967543435
0.0065053681079983204
0.016889845979658192
-0.03623294206626778
0.009933530790087063
0.12840132159363385
-0.0635286831918007
0.025008829850366832
0.025289697674740087
-0.050714790400542366
-0.001006467206590908
0.01419608635532681
0.02059962845820175
-0.06231472403284582
-0.04502048405234224
0.005922487607722533
-0.1197774039155109
0.01993830255521696
-0.019989222891096132
0.028870990116867102
-0.04442966256751333
-0.09877895996780686
0.004361443373907946
-0.011468120644984453
0.014403297067734327
-0.009082769048724555
-0.03384276810725142
-0.09487875255954034
0.08433707008910239
-0.10731520043375896
-0.028767369982696363
-0.041264185484771135
-0.026165106161454316
0.001898420635156959
-0.04231183413488552
0.08950624276232962
0.016818606102668745
0.07148104362511007
0.08221657490746455
0.006842347471758624
0.044382011132790763
-0.007447798767936872
0.0013862766265669035
0.03668134971905278
-0.015991872175982642
0.02538070033927059
-0.03233213892744889
-0.08140595863245387
0.035746779344287605
-0.06525714653796641
0.08038744672546058
-0.0008912904857231818
0.029499628939360145
0.021375122234685726
0.022222732486379095
0.04414284873737939
-0.06410272765134344
0.031186998284712747
0.01469247747646198
0.042038549809640224
0.033160546764583444
-0.0109166587648322
0.013459485196362057
-0.02012960095890856
-0.0014989705890297413
-0.015214488168582178
-0.055653379555049454
0.011562529010734648
0.01285039846608446
-0.010677144108374318
-0.07296050954108245
-0.04799445343496206
0.07719181624433258
0.0027432568044300516
-0.013147970622691574
-0.005714784045761841
-0.0070078933843904165
0.07012308684704685
-0.049564640860616654
-0.0029592505426027597
0.055843217916846814
-0.00516722431801775
-0.018406055239221075
-0.10049472786876577
0.02276470802158285
0.008030054987817914
-0.03020259657580391
0.01698688063971124
0.03357354056373613
0.039258954763618986
-0.014063277513411977
0.03877609342061845
0.008946647758688774
0.015693281316502418
0.044276133714658106
-0.038402180815221364
-0.08161146994715493
-0.032140065843706975
0.013199046155506561
-0.0037689406623766515
-0.03912979496531416
0.09488486133846591
0.1097634954096878
-0.11448813419273714
-0.014019514543916168
0.037281854905379115
-0.03557875412545412
-0.00993176008673598
-0.007766862939688946
-0.00045678633551769646
-0.03759718745409831
0.00692999952423478
0.027133019032921847
0.03031932160251878
-0.06391596497891149
-0.04502570187974557
-0.1440572040187083
0.038581961198824226
-0.006997121924713794
0.025503734700914632
-0.06143682156818996
0.08402785990355148
-0.039136354459277656
0.029595379568756783
-0.10849540536824234
0.03356504919919117
0.030861571071857954
0.019411681393376568
0.0020816951338321218
-0.05255956591079391
0.0844028788769709
0.018555166865644276
0.013704644563189403
0.062023612043800615
-0.04252135558700684
0.025920370187393987
0.04775376533130027
-0.04739912477320976
-0.008605462222559165
0.06890150479583501
0.05131337957026577
0.038985170365986484
0.07317267937542225
-0.007223180175531778
0.030663686222772886
-0.05059495522924465
0.028482401493424615
-0.06382578869610202
-0.0027124863109831286
-0.012307843526232584
-0.011967853441519419
0.028319678958739814
0.07682502974542002
-0.039601167294213285
-0.04764711141199087
-0.006258495997581281
-0.053003913536932526
0.03017678960470359
-0.029984434476502217
-0.05073350194661058
-0.031350205603295926
-0.07963903318810099
-0.011308045483267228
-0.011929002850829694
0.01843895509067794
0.001988514840691832
0.0566884979961556
0.04935739006291176
0.07547417704520389
-0.0190847194519274
0.033969001921751396
0.08159261462818847
0.05414084020078789
0.06577729550230828
-0.07969108934346844
0.0401273459482685
-0.006374221294129629
0.008696024948894569
-0.029822914398045648
0.06952228618947605
-0.071761227128597
-0.0010334554873226499
-0.0193969392411966
-0.04635649938455802
-0.03788415128742689
0.05825184949965212
0.0010247716853622041
-0.017706387857231328
0.011522523031504223
-0.03883133064166713
0.0030839845573411547
0.06763088176719571
0.0265276942962232
-0.05765097105787675
0.013533489942236071
0.05975380970863803
0.02221694596732117
-0.008478093542823781
-0.0331036196229259
0.07751817301212523
0.46216364665334336
0.9868494865071752
0.5538237045442177
0.11913856164544215
-0.030293205509241736
-0.14767489828386357
-0.03887694244082528
-0.011265581039431958
-0.09943850623400066
-0.03762545372439637
-0.08219606801234097
0.05666935361268031
-0.023267780781308343
0.06883900318207246
-0.07074182776567872
0.07401893189917237
0.07224267768095192
-0.06425989041344835
0.008325023184656454
-0.036789566820113154
0.05877930974600577
0.0014063216729479962
-0.027308528398586447
-0.010657467353543379
-0.020573290802293805
0.11768897515361679
0.041617241543830036
0.02983136915677544
-0.11072715556214473
0.01667875922543743
0.027716968835046464
0.05182567590563724
0.20695021072179842
0.009181371908868743
-0.04112629082062658
-0.08162091306870568
-0.08814729670402889
-0.03613028160060035
0.024695888389951726
-0.0012488723127457955
0.004137448338223787
-0.1133218497982058
-0.05251764068203079
-0.014798080252008752
-0.10149386210359992
-0.023293557728308684
0.00422129926321231
0.07073289280029875
0.03825721191386189
-0.0505069906088788
-0.03289407628786943
-0.02185602893118714
0.04419568806388749
0.012916296613999687
0.07688258708374196
0.0846594010334577
0.06270337128415182
-0.050490860278636064
-0.06585729834599258
0.007603624572679802
-0.025108578055924338
0.07623652887375425
-0.03400327680228915
-0.07478987136970121
-0.043808262838258005
-0.10594360296790016
-0.049791239667370354
0.0705645000054555
0.02807128141061245
0.01643373837988159
-0.007201728082218613
-0.012605056222877463
-0.019098697979735308
-0.011452230583292727
-0.01995541454357089
-0.07286385526388044
0.04713283398050706
0.0035311435212595217
-3.765639462030714e-05
0.01116780778203061
-0.018330200135537954
0.09603765358116265
-0.05818153641862023
-0.14201573212900617
0.13146766779972374
0.002064420013763346
-0.050639500899350855
0.038028923058955305
-0.07474925731986641
-0.1112917599449545
-0.02538442261657653
-0.030002563330426897
0.008949937361556115
-0.020112129308822085
-0.04908656832051067
-0.09026874586122335
-0.03079693660370916
-0.0026213269435554163
0.0212675438244227
-0.01491703733983403
0.022858435109528757
-0.06498101142087692
0.02378169415620489
0.003991826883066463
0.05445865724794141
-0.026397260199485285
0.04081626788789077
-0.024817879657586847
-0.013431276382773725
0.017380578197083024
0.009628571622967604
0.015590024254327312
0.015555292325307274
-0.0423198197883237
0.016100710116690002
-0.017388259309153425
0.018999185620030987
0.03114663876206051
0.0259244621089212
0.0589811536621113
-0.025544945838419736
0.052039929871112424
-0.06490700423858757
-0.013010049927327719
0.034745378173388464
-0.029702262038068025
0.021060727222904037
0.042137076207546274
-0.004935318133202826
0.01580770316180491
0.012380523298787369
0.0018303151511455673
0.11927859934057534
0.05355762814571387
0.057398658542790984
-0.04933008995618008
-0.054194810933693806
0.006419058462663669
-0.006780513577232368
-0.0129211189192762
0.009112585528074195
-0.022822600054312428
-0.015059939851413821
0.042140622114766796
0.004806915989600434
0.07036046849561693
-0.008399107061249033
-0.06866702609361877
0.03615463896961299
-0.07579005630788435
-0.050801060302536886
0.0748400834572493
-0.015237455197948639
0.02148305313272231
0.03451976795014781
0.05990423154270155
-0.009917143708133683
-0.0276663624074434
-0.023664957405002594
-0.06943556190913734
-0.013004836884556326
-0.033458000562219495
-0.07893182615009206
0.07219133837306603
0.009652226581352742
-0.005122905528423729
-0.031202763574745863
0.009121377775171387
0.08693917940726391
-0.009771798021114587
-0.002160932823043495
0.021631830152719304
0.02811011876400518
-6.243933207935561e-05
-0.05257568183715601
-0.07190890360512975
0.03909971696735524
0.06648842006232464
0.03871508395702175
-0.007935731695678844
-0.0047656793094408715
-0.07705354890627408
0.024734297817872935
0.046243267135758145
-0.13216234606418467
0.02200683824632872
-0.03641113547287627
-0.06815392699811045
-0.004722971174429475
-0.06927056137986105
-0.04402842656806071
-0.05857431326101262
-0.006235198982022944
0.025473352504205227
0.07732412987711396
-0.07212877982861632
-0.09152742179990268
-0.013771149528521143
0.022171955007660813
0.03260289548795626
0.013184213723672053
0.4814272365129427
1.0161579255270345
0.5560862874029088
0.07207984706929721
-0.03701320147512912
0.07064603115718746
-0.023314087556184554
0.02611435614036349
0.10952822444193905
0.0659280067052111
-0.03140567627768116
-0.08355693667027418
-0.027702265173141644
0.005924606714883967
0.14750200819142614
0.035092514606194634
-0.056823145898706885
0.007353600175527099
0.013796246792377929
-0.044940285323302055
-0.00900737441280573
0.05294135916371805
-0.09260814624297778
0.0028822615487133145
-0.09556165613987426
0.034913109027410565
-0.020352339957976532
0.004326222456912465
-0.035472439281131814
-0.06202564876639924
0.012015662309443936
-0.04433842581030796
0.028951657708625508
0.04628413282448616
0.018202851602571485
-0.02648519728760724
0.012627030726095221
0.0027152851428610663
0.010535873691189808
0.00683342437965697
-0.0055174150669881315
0.019799194749492797
-0.011614036056698251
0.023572158932814696
-0.05322615772909322
0.007217001066078759
0.07066210881724491
-0.05143169871065234
-0.08446693076683538
0.03091308686921957
-0.009021542296729787
0.0966652016145147
-0.07224352461739465
-0.030615456712240047
-0.003254829365773265
-0.028680435666234006
-0.004591151120115247
-0.025259326147322066
0.009832656772786053
0.03412506315367636
-0.0696861951043282
0.06855809047889772
-0.04312354414679379
-0.0592081107308696
-0.006526876589815861
-0.0937242836515119
0.04294696088717627
0.0882124371517709
-0.038270529768257254
-0.12593143265347986
0.10013549056925075
-0.06752373904032188
0.062382942645491025
-0.027680356942155815
0.11677568614150746
0.05404381014366716
-0.010157367625523725
-0.006893949338943321
0.030031356448416636
0.05183543002817323
0.001855557148381981
0.041658277307384035
0.048501714875822464
0.0053475586505291285
0.027557311880812826
0.017608381103400208
0.015270150056202733
-0.037294698014829396
-0.06441673457752822
0.022113743100154515
0.00035729753417874786
0.02724449727085962
-0.021174813414925026
-0.023255715131525783
0.007303356293567748
-0.03048778698230531
-0.00923452664441132
0.07181803805666472
-0.035723036765208736
-0.13402206723994572
-0.057779453528234576
-0.03048193379606425
-0.018139743778049174
-0.009689807582918323
0.00314485736336873
0.013637166923846597
0.006238040279747337
-0.03796016771456505
-0.0258703404105478
0.03073937961248162
0.004972667217031379
-0.05064243448969899
-0.04871817184985957
-0.01050935710110546
0.052987525984567296
0.11330974807641087
-0.005216812759086418
0.029997607796189957
-0.03844331752294145
-0.025379749097670563
0.039265502462524055
-0.10830140809339941
0.02058718963690042
0.0636566713026467
0.037386223034600694
-0.02806611604505614
-0.038483108694961056
-0.02052688090940409
0.08597198057773667
-0.01906049366657535
0.04094718310737336
0.0018346189744999882
0.01653439722612191
0.06227658058174057
0.01048466956662571
-0.06149034605884401
0.05932808422817198
0.03311520829960393
0.013392149119839596
0.029781059713000074
0.003957559105684318
-0.05456936360014896
0.07784535377554364
-0.07300649319712801
0.058217110772808035
-0.02742193172151361
0.024568978118285265
-0.019189252185616956
-0.058142006956535076
0.03956652853823402
0.05609422877594411
0.07503595989232298
0.042044149554965396
0.06531366260875604
-0.0921459244740983
-0.04259740397919386
0.021083123023658557
-0.00990135165687582
0.011077815752215149
0.08740232265103651
0.07747451817604621
-0.016818408613712667
-0.0694644978655073
0.08435627976323874
0.013034733831185173
0.034825064871723085
-0.07571560537737647
-0.040886392766393234
0.03103387244906007
-0.05731782646774704
-0.012156942048707592
-0.024419866939970183
-0.02334681526816661
0.01808457445937231
-0.01517812916596259
0.014417355136290073
-0.029787473409233697
-0.024770414545004775
0.003023023917208255
-0.015433428612112506
0.04073440480759492
-0.035681064612024166
-0.045248165917113614
-0.002292377320046952
-0.0797114775914068
-0.045880766836023774
-0.015803158536908966
0.07871412203767986
0.07559577057174503
0.0368961192424322
-0.1268870799375607
0.045759387466912466
0.03631166143299326
-0.06168205746260637
0.04351196050608078
-0.02111169646942103
-0.016939230027465554
-0.08986181768326412
0.0797279149657255
-0.0031458247436019697
0.029441526111486177
-0.026261324305334406
-0.05656263796315776
0.09296203539854399
0.0030051033526070792
-0.025886281830587866
-0.020094192259187446
-0.006441949546285988
-0.09323157906354612
0.06164395961891145
0.03102802264286496
0.042503938213777945
-0.03141568315710625
0.17295315901655461
0.5371861087953713
1.0453581169772808
0.4485137605362261
0.1533905218892565
-0.0229575291629771
-0.028444314667006768
0.016813290759653533
-0.03623403976242362
0.059616719405025886
0.0561521401270885
0.006395318503331528
0.055578499313453156
0.013262638887162548
0.006496080533468337
0.050215115126905345
-0.023913312717411914
-0.10469912102334607
-0.025220177506374578
0.029319842170765206
0.007899121391895745
0.007695651944664869
0.015448092865103354
-0.05471646172863527
-0.029828562466423084
0.04672656434190891
-0.05330221418798639
0.019198306832272312
0.048714842401135355
-0.058946468512659736
0.010617540568497197
0.09627308600637717
0.03720011222101444
-0.06512933331870152
-0.03117142199699883
0.008013494011335165
0.06980549834969955
-0.04320957416878574
-0.01995780712073038
0.04887122623082053
-0.035768852845134584
-0.005737594846973353
-0.039124914787592294
-0.04996149720518492
0.028472231442137532
-0.00011241846346526956
-0.030359550169518648
0.04708215180059927
0.015753440688139463
0.04251046258347238
0.05271446673064065
0.03770853407839509
-0.06044177399183555
-0.01865614655711846
-0.028964533165496062
0.059618279108983444
-0.012084783053368374
-0.0015446266439840387
0.041796071006276386
-0.02484229252090745
-0.0365407379845418
0.045843501653262286
-0.06209858663252032
0.013718709201382493
-0.029845571328123974
0.02104819131520863
-0.08039849134842371
-0.01691515224305284
0.0102442351377734
0.09558464326704667
-0.062437495974321716
-0.07187075609913983
-0.01817130471976819
-0.04632947446348719
-0.07706672620960962
-0.0053973332140790095
0.0525463912026264
0.004840795222340162
0.10733319025698139
-0.13663420746431762
0.030269084380312547
-0.04077631354602862
-8.687591602613606e-05
0.013092156503624051
-0.0396316879228405
-0.011456309910136688
-0.02760121450368972
-0.019294480208544018
-0.04141782664581067
0.03543167089215787
-0.06424490181502998
0.0863237231357771
-0.037806015551998334
0.026467130138336625
0.04326676176714152
0.00100681113927574
-0.0460068278942799
0.011863265250710055
0.02858982535816712
0.03933306196924718
0.04853701917636409
0.04200376427773841
-0.03065366151498435
-0.0004349707851938147
-0.021512739478547396
-0.05782811244176678
-0.008757390917242003
0.03493761362617001
0.023050343829066205
0.0741673217599419
-0.0074584219247047015
-0.06250632273887156
0.029082503395239552
-0.031573391296785484
-0.030654008613585443
0.05427051716995534
-0.008809176477497136
-0.012203805367321626
-0.008571421236836041
-0.041038994459068154
0.025075027926027796
-0.0077090481943156534
0.05009901391897556
0.005324012944676324
0.002407421925797734
0.008432326622286677
-0.10790611215595675
-0.02320644239870716
-0.03225948571471118
-0.060134373111691036
-0.058500635133594804
0.04082837834397564
-0.07333604563828638
-0.023833705953233038
-0.0639427766582683
-0.01779262021914753
0.018382247932819146
0.029640068868967306
0.011818797154369677
-0.001593833007489818
0.06172030606281026
0.06267752392593484
0.01022753023988237
0.11981880820506075
-0.015164312552170992
-0.07168981517753373
-0.028747120111227265
0.036398839275018906
0.07657849232773672
0.08507329808287978
0.03519203183410992
0.013622275641857633
0.05104812089283889
0.048955564045646265
-0.0832924455192165
-0.0024482272630082964
-0.004228497682249633
0.02138867035180626
0.026199895422998526
0.01923189668005519
-0.011054215483742186
0.0067309865950649014
-0.0250262129508907
0.01863708025273054
-0.013213934054674751
-0.11488300654665413
0.10863551578477004
0.05429803850491313
0.037912976999225356
-0.05264939705868857
-0.09769757867608536
-0.03813068126461859
0.13737424617343802
-0.03611143924662649
0.012850306771016746
-0.07181559280554055
-0.02587004717438013
-0.05402255990413222
0.03682339890957995
-0.013157779287513889
0.008170910750406145
0.06177094063906613
-0.04593992704229261
0.057071239171822545
-0.023628796742614668
0.04211673229997548
0.02316529532995955
-0.005430947866273065
-0.03341551755144143
0.020959656081344452
0.041407897818102085
0.08538912191656883
-0.02174550112295555
0.032154793092869526
-0.06559878785894706
0.03251048326322819
0.005792096718070378
0.06203222796348434
0.00984673632146997
0.05678518257043335
0.023111724384025593
-0.12836389583029953
-0.00044831006314285655
-0.09788241315568168
-0.03771313467718368
0.023131311522432727
0.021687537012408154
-0.05319644749818277
-0.01511592910969433
-0.036709168844035855
0.055680268787130865
-0.1374672319899984
-0.009745647430289286
-0.049966697714665886
-0.00018814941529790555
-0.0566796990046803
0.060916051505489656
0.12932905660951705
0.5372684598622665
0.9946469098222779
0.5414840589925481
0.07019543803409209
0.04119468800610514
-0.08456249062615673
-0.021600506360533494
-0.0038137951376454302
-0.020179302634104394
-0.0726640989448482
-0.04811390561498607
-0.06693355027457204
-0.03148000069629991
-0.007700877909834121
-0.009773590692773691
0.04726588555229526
-0.03489750116143388
-0.021948103534257635
0.03783505579808602
0.018959107473656048
-0.07431268852838932
-0.0036468909902391163
0.029572028950194597
-0.06570305203436089
-0.07555020181493127
-0.12172214562008055
0.06187694665179852
0.03590476479103091
0.02251457147932666
0.011258885854107984
-0.0421961787551218
0.056325995645489825
0.017217711996390588
-0.046690978466459594
-0.047133539621878204
-0.07608099106411609
0.018159235777610822
0.07474211719310037
-0.0031177716298641566
0.0760067828238222
0.06502066400418524
0.014890560009228757
-0.04048235877122138
-0.007984333531260624
0.06285988391868472
-0.002337480667442987
0.031035084163099864
0.06347876476083629
0.055947940492628315
0.047439536183190634
-0.009611533492338308
0.024517013585476588
-0.022288053172532723
-0.042025194545567544
-0.01735991966138281
0.013787850072102995
-0.0019864488859837994
0.030826974884313976
-0.0451096092948757
0.03478406600653313
-0.0037306360653734365
0.11622394618687698
-0.06604408335503165
-0.0120705914925559
-0.025165429957804016
-0.13454078544448853
-0.054573156145610605
-0.01449387524425423
-0.07110312371591115
-0.043529098536270815
0.03347639414331301
0.0003015111985081248
0.0033797691925556636
0.03539403083175447
-0.001468175267629791
-0.013289169481596724
0.009475082734740172
0.0356684902366536
-0.0435853341362185
-0.06086914796947837
-0.004111627355702301
0.08436708979268245
0.0034579179671009614
-0.049055232961092717
0.06386363710039838
-0.005719045935332832
-0.12241346913884957
-0.08074609713522511
-0.053157537101147456
0.020718672406931517
-0.02796514753150994
0.00406489241588893
0.02223393086356086
0.03996070957227124
-0.017355686921591822
-0.06242664742626245
0.06802343190864595
-0.02308142786465327
0.04907224464420542
-0.08270286293064842
-0.009498691485038107
-0.06603555008862232
0.06563116339854257
-0.04524040585328204
0.0775624870257898
0.0004510910106699225
0.027151599370303932
-0.0499415104697249
0.05882080091130198
0.012915122946695569
0.06988158579310448
-0.039236336020183026
-0.014691071483376004
0.04413276568128674
0.01887695004550145
-0.06503345520563045
-0.07955366023737084
-0.020489835753975276
-0.004900517095609952
-0.05416377327393468
-0.05775505004846714
0.06290740573768298
0.014672001056276064
-0.0523216962631651
0.11092541920142261
-0.06644403356400101
-0.10806159339260035
-0.047812493923780175
-0.047006988775091275
0.00496355645858651
-0.022961898023497584
-0.09065786649308923
0.041901102230992304
-0.05685787557330152
0.019769313964374136
-0.04921299136395733
0.031178828803963485
-0.044496372471047985
0.08275989086391475
-0.07345593390672786
-0.02167202693148351
0.07846072551898182
-0.045267706876460534
0.006701025493789527
0.0018305546379630872
-0.03687093655813939
-0.0922520617523863
0.009270946072492427
-0.03862094370939668
0.06889220074654093
0.12081933416310514
-0.05878274109903329
0.03108477092658432
-0.03426713010391574
-0.07109356645886378
0.059399533817103604
0.032183861540503525
0.03684744925171451
0.01567031971544757
0.0013312003063409776
0.02542316484242435
0.004485897889452822
0.022032406734182667
-0.05036004046781853
-0.07322579194469829
-0.011060118376051817
0.040034236804463164
0.07574652984316568
0.030787407358158277
-0.020048533143784433
0.04073670467569203
-0.0359951491845959
0.03959269314664665
0.018150753828347754
0.02721209559232294
0.016473650079466995
0.0067492525239039175
-0.0034736557871506736
-0.0015959602283591207
-0.0930496450748197
0.018706257748446902
-0.040322423394617224
0.03391666961323441
-0.03779970082970921
-0.08249239664196051
-0.03774232658588745
-0.030227786574881663
-0.002346551321290595
-0.049311122369810195
0.06114130785737359
-0.011809956400186266
0.14386374512505473
0.44096181653878697
1.0996918459717901
0.5070211427479804
0.08651623517204812
-0.01360788721000196
0.023239899226994473
0.05349487118544071
0.052561200606881776
0.04728096926728385
0.01687065049991215
0.049081082508030276
-0.017574263882837143
0.00805341161412303
0.03532525762446835
0.050490321222390125
-0.08696490098685085
-0.036316640337449684
-0.08196706873893278
-0.008259486345011755
0.05172425227204445
-0.03908198217485599
0.036941485276402994
0.053880888542379726
-0.05647955562119325
0.033124666547306204
-0.043989995341415934
-0.008199876104748599
0.03451951518342266
0.04875027084938829
0.08354638942761185
-0.045378064518522804
0.06236205224376932
-0.010875864433000535
0.008556525782964506
0.009717293935497223
-0.01356120900466281
0.06093438853986847
-0.00843538563984044
-0.06166063095830944
0.04181623279267869
-0.06187369764831028
-0.03271363428831833
0.006007462127657501
-0.003478787670118224
0.014802247983824983
-0.0014775338796663888
0.015632039972352636
0.0034164076228843836
0.12598063533951834
-0.0040308164066394595
-0.029798800751848917
-0.05917453396529361
-0.016396785254563753
0.011326452208390701
0.04544892005657464
-0.029445074415074782
0.005502274289669962
0.09024034561135726
0.051783664262416595
0.05378948246763583
0.005526235068990405
-0.029650227020799603
0.04214316994430108
-0.027065469921370308
0.007208109964533033
-0.04458214840435736
0.02411876899087398
0.02685162700799176
-0.05713007164251613
0.026127617570557232
-0.02498055869414308
-0.020524735554375645
0.015550834645348698
-0.057993570385317744
0.011624712915319146
0.05638719310998247
0.007227152335311528
0.013074622986170042
0.01286151486949152
0.014347846986415384
0.03679408218025478
-0.051095155131130957
0.038759030195904896
-0.024661995324585614
-0.06738528893742851
0.029770855179685175
-0.05352451343695855
0.050613315647019576
0.03845729584284974
-0.008961669652628764
0.09409936794586993
-0.06520181947843842
0.03364508744657368
0.029848495066113895
-0.006903771553209203
0.003517039233429444
-0.04059981349729412
0.036379065461418246
-0.019203541834958274
0.03209891048289098
0.01552499011420492
0.0697872654370562
0.003968609662161144
0.0794381567127933
0.009961036185081415
-0.00648464388198588
-0.024061513521168715
0.06630517549625368
-0.05593701323100936
0.002977603750657726
-0.034673234667451265
0.03375510051170785
-0.011211104654851901
0.029469871092042483
-0.026691602426849717
0.05010293271916984
0.019255312675051824
-0.08614907052405113
0.0006698868272337717
0.018356230696059603
-0.0043294008026119836
0.0333885241225776
0.041354117643583405
-0.01949464863591273
0.05646791765260151
0.01191908296551969
0.016291311902390217
-0.10875674756124419
0.02089160839614328
0.007612826387783109
1.1095471975051104e-05
0.029920263319832892
0.043156448141395735
0.06916241513918776
-0.03363342968049311
-0.040983414241898636
-0.0403457758436142
0.0011089269624242118
-0.0607437830991878
0.06619238534975602
-0.0068464733035763685
0.010162969909059965
-0.008949542049200348
-0.1014969189495165
0.02361777195782139
0.02801768444052895
0.01598836109607543
0.05237694528478564
0.03166226712548707
-0.04876928774553736
0.055910673639292245
-0.004671670320682705
-0.06417515084087724
0.05136226811576572
0.04019384802107866
-0.01010013267191942
0.045517627470533256
0.10941215163767917
0.08804768373090556
-0.0015771337876918862
0.0103145178095485
0.020933783997776623
-0.03977876498762358
0.039291519151029006
-0.07177603251521703
-0.02593801622193876
0.10050269828357852
-0.023938581798027655
-0.03147089988049662
0.05416156877260223
-0.04865725062575623
0.06395045923528919
0.025741920138140174
-0.03579894349644011
0.0030461182559599243
-0.06910035806243695
-0.06310638201709495
-0.007746024600062601
0.07137067987355397
0.0766491747153572
0.013595383154223893
0.03669988030967196
0.0342449827174423
0.1202102140689513
-0.03427168434712728
-0.042294219256810796
-0.0678852100707014
-0.02149068493560466
0.039771882235626485
-5.399477299225219e-05
-0.008072044780017792
0.07750233652741192
0.010736973450265544
-0.04489052482372997
0.005062306416749804
0.02586441262806803
0.042786420783284075
-0.046024216205235315
-0.0890148796055413
-0.0073190463909304174
0.017552600422364267
0.04688923646628451
-0.02004210512329788
0.017483874589107006
0.06818716350986918
-0.022203216679404725
-0.021025880726891516
0.01950975113420632
-0.012066695359413994
-0.055540063162260116
-0.11218557821020236
0.07618633792543009
0.12195378192443106
-0.014866822619797293
0.0013421105036716962
-0.013750543621060244
0.029743260615127633
0.06807993656187594
0.4338338670846611
1.0221509655425918
0.41904558315807494
0.13341477601147528
-0.04707411218434928
-0.10572838136709235
-0.010476137208789173
-0.05278967896104606
-0.012147181669524481
0.00425119548799629
-0.06473708291178455
-0.014330993202245252
0.004388644065166459
-0.04961314203575889
0.04183851520803034
0.05982501590656178
0.03645865507033104
0.0884923494469036
-0.006985037491323522
-0.013761300608316344
0.01745547067126435
-0.02948467424190639
-0.0893702456231363
-0.029850686432031766
-0.02965281340693243
-0.00823218912998672
0.05780496351370556
-0.01756422892428964
-0.028142473824518694
0.0036472231541367535
0.044445149890724275
-0.037037112537685955
-0.06335270110924673
0.056621216251132214
-0.026586571249155005
0.0016632384290447715
0.06995710778857922
0.03184331447291205
-0.10385895082644687
0.017672537399496986
-0.01025960236916039
-0.014582502545231052
-0.020304250805917485
-0.07570858483327751
0.000855125613051498
-0.012014684234094124
-0.004788162763312307
-0.0413144523833635
0.03827216629984834
0.0516986672446779
-0.06762976647739585
-0.08682844960876122
-0.05040324693818239
-0.030057447551556805
-0.04563550247505262
0.0826505308488753
0.010282235677129836
0.01464989746487793
-0.03892019464982263
0.0839067853927774
-0.05711839604199718
-0.012818553919199513
-0.09943871180012819
-0.011953710410721158
0.0045978537780106245
0.01861701535571986
-0.1539010202134404
0.0479422444576266
0.028321479556627865
0.1181105784316363
0.11175046103078529
-0.013418154995219754
-0.006090659592009041
-0.03640697842174859
0.08275322987926632
-0.09689430698451085
0.018697209200476333
-0.043287394853692505
0.025589346957832472
-0.033951554813797045
-0.05624042154170155
0.012164528341679023
0.006872993214298052
0.05924829528584801
0.0446608416932584
0.03497106201136617
0.01959610988545042
-0.04475546250629902
0.01360317238914973
-0.007257359155034485
-0.011736775860059735
-1.200079393069959e-05
0.05704740939604946
-0.06184332653841447
-0.006616647491847568
-0.004141656507247703
-0.003233122038102604
0.04920355684589186
-0.006348383421237627
-0.10238624276050373
0.05856217597539353
-0.04581192078245305
0.00875120105294709
0.06073628814374983
-0.08112600650065299
-0.008689116537705512
0.018033712032169587
-0.03250485649977965
0.016081734872663234
0.0678771522981679
-0.04352627372851492
-0.006656417489905273
0.013785047692175562
0.0667489262719738
0.06321728653907976
0.0011051223834229375
-0.02281442630839115
-0.08291251714599421
0.023830606495715202
0.005207335303331012
0.0022543625401618777
0.00724492613188937
-0.03168922040685346
-0.052156689319187724
-0.07150349721918194
-0.02202763463979092
0.0006869218670341732
-0.013544292993495494
0.07779544743496375
-0.05629222582639465
0.07288440675931489
-0.09860502194512295
-0.020018974038756257
-0.03436044614443678
-0.06458982982936767
-0.07833662907829032
-0.018644343706547963
-0.052160046838634205
-0.08850733860657053
0.07811256101869812
-0.00235905731219833
0.018792977960653955
-0.004025218562294691
0.023768800421757528
-0.021170921147882563
-0.03610237009954732
-0.06826791860241381
0.037622367110984545
0.027926848697397533
-0.03296265505339748
0.02444386635915756
-0.01264160376164744
-0.010755207542500868
-0.021264043010451178
0.12256294364884135
0.047378275181797574
-0.045852956154723956
-0.014664624994616297
-0.006092108198296437
-0.047359302180141276
0.02343217422695397
0.045437494819679125
0.044744545377130504
0.05341066039391399
0.01898828967613056
-0.10518254011141207
0.015135807541972968
0.044843722523042244
0.00882628482734901
0.07075063038882305
0.02282359980460566
0.05081573503698527
0.07865864766610274
0.01740018883580267
0.0010212069348613062
0.12164404319436802
-0.02002455517107064
-0.06704557207446472
-0.00013114895018188024
0.031954488734565877
0.01958667369189872
0.0026550726453524417
0.0071503184191338415
-0.004574733934994883
0.0017375049285395256
-0.02792095143740614
0.045602428370797816
-0.001549403456279149
-0.0416115615776685
0.031223457963260776
0.01521294268267994
-0.010280285054595224
-0.03311371380609137
-0.007743509874497125
0.09024938615353073
-0.06414870182194783
0.0335530990958941
-0.01854968343967203
0.01229173447011192
0.02435948757699195
-0.011371969563230016
-0.044857106119356095
0.09553881751293507
0.061159929024125495
0.1568022645190933
0.39775830410393964
0.9451106162238782
0.47813986775241335
0.12787204337374306
0.03440531147502681
0.001661050769352026
-0.11266364453610873
-0.06715788389298556
0.009668771386612198
-0.01120214053849122
0.01723645420404252
-0.015757252734680458
0.08778396973673729
0.04769553608859918
-0.021305753955579328
0.08832459744100614
-0.006037062873769179
0.006201570977589637
-0.010706330625263414
-0.00920500246220282
-0.08574356024134283
0.02365099058255567
0.0329845852090105
-0.00970493500523175
-0.04865771340437433
-0.06689570500735285
-0.024703440994348264
-0.054175801249600364
-0.004107938962674552
0.054767579459673144
-0.0926154194141679
0.04582907886619966
-0.0446517449767516
0.044129663387607106
0.010556630332643377
-0.010765106729020662
0.01794614274090293
0.022175756340845818
-0.031187965526941114
0.01087629919052488
0.01999648647500953
0.0044358466847943204
0.06439915102876656
0.0056053964588499644
-0.026019341607397994
0.024345080553590893
0.010314982701042525
0.05432684146645448
-0.024071393554796205
0.025709289226556954
0.03546270439018776
-0.058546680859754
0.01687014453468704
-0.12278769485594179
-0.03684436929501045
-0.0859235961202578
-0.0032442404559200246
-0.005764930559923676
0.0803381649331335
0.0505450794940021
-0.08030998388940602
-0.09937724653144817
0.059702771228519275
0.018400522310475204
-0.002398968160168465
-0.05828525268375267
-0.07403975395741054
0.0025286076280238885
0.04897788457446059
-0.05636822626566934
0.046917361834023404
0.04635969150027618
0.052953551338914974
-0.003052927942088308
0.05388934035605456
0.05956771028423528
0.0677387805962388
-0.01363535704527378
0.0506016284615936
0.09629578765903887
0.0923459265732671
0.0712446314923676
0.02072529564617109
-0.0071689858211080315
0.04244417756072433
-0.0014550937033930879
0.030798955073841096
0.1450262797304563
0.04797745142373364
0.026870056274784088
0.03644093992589137
0.025594013286425483
-0.09310067870825572
-0.025726091100913236
0.029096501392238225
-0.0173391779898537
0.031433549709835584
-0.016441221174256285
0.04749657860777856
0.006018812332466732
0.021252492149679753
0.07380241873102326
0.00035418665927462045
0.1514472409662692
-0.005429942516035858
-0.050812304763128806
0.04583147571880738
-0.07807684442646728
0.021374452277307367
-0.021871288430827744
-0.04850905462248642
-0.0032251292349291093
-0.014291899470722031
-0.03847293588380023
-0.005725284956015722
0.053938224665198646
-0.0012260751660659447
-0.017880162332887087
0.0010665968324231252
0.03912719936077288
-0.021030475556875497
0.010568142831924199
0.07305350126177115
0.0401529707320483
0.03091191885393307
0.002880755509702855
-0.06622792031517685
-0.011638690995373123
-0.014173130295413148
0.011982503607652736
-0.018269693919110205
-0.0007992633538645074
0.01813086949692227
-0.06257807756093013
0.032803291545510926
-0.04918370632395392
-0.016405256735024087
-0.07123670387826407
-0.045958089279309194
-0.05830456399450706
0.03236130456778101
0.0021272907005691634
-0.0009200643684447607
0.16511500593286052
0.017194743806820314
-0.047832884671611155
-0.05484609031973872
-0.058835572940748364
0.032240940861716576
-0.01244729455993103
-0.014591929985448225
-0.0029168422435185692
0.006077111336016417
0.06273788083096643
0.03004874342774283
0.05089718401916106
0.010750154736250133
0.0334888602927367
-0.028849680404283696
-0.07599620955557847
0.0687038270317377
0.016985937505669242
0.031060609959072467
-0.055199314819475855
-0.05524556526222472
0.00283200402980528
-0.002596873713151171
0.021231379283006842
-0.05658526762334307
0.0834850322935266
-0.07826535841163047
-0.01562527817751971
0.016054496578099386
-0.014433666001554595
-0.040172472577763796
-0.03051643070107975
-0.04292517688827374
0.02895065164608524
0.0073219101257096094
-0.018045633460984662
0.033965915408333956
0.05378023845164881
-0.02872054028499818
-0.08272802967938007
-0.06037327937978472
-0.018967241771650857
0.08546728037536284
-0.030741225919028697
-0.005407896664309021
-0.00467489270847537
0.01626065320466375
-0.066919153988287
0.021723554345765186
0.03617579610330603
0.06365075076226688
0.0396560341761237
-0.003752813884698446
-0.10069521247401594
-0.04635453514945808
-0.0070391593640499435
0.014589886354139159
-0.01888550181275201
0.006782382701879901
0.04940235119736338
0.07740542871471469
-0.007405615482398928
-0.00468886027788069
0.07741533162274275
-0.01826903326977126
-0.03546147523515244
-0.041041718606354534
0.03199320044975631
0.11406577750837206
-0.06639404480466707
0.00941934900999113
0.07242121258147927
0.5571018544860227
0.9925008038426134
0.485353208257316
0.11181815084142623
0.04391176663074592
0.053230738160197244
-0.07077469709996918
-0.07411963347214394
0.024031693715038143
0.005198974574543954
-0.04167845361315056
0.013564237105590987
0.01236985325269878
-0.062430376112984465
0.0011769511925901934
0.026834376317376465
-0.006061488076600302
0.02717486227659794
0.11427800239154157
-0.03206741502059067
-0.005643207305467415
-0.08319701715992868
0.05096867665629598
0.009302432957967366
0.06995918087614492
0.059397404221133335
0.050901575908514
-0.008666226230655638
0.0231309681875054
0.10999022129362501
0.0090572971451769
0.08588338347185485
-0.08608189113088541
0.04398897073670368
-0.0023982674549511574
0.028962803675829474
0.024200510512603506
0.015460608062836001
-0.11931265657963262
0.07712800329695714
-0.013020806923381024
0.02769317334020578
-0.04155473812510499
-0.022404791455212694
0.021965240215186477
0.04995937270349662
-0.04054105989410454
-0.13015627717988149
0.0413307248517414
0.019572210697409387
0.04207625121440532
0.09839087475183271
-0.05369538469396226
0.04135177534849183
0.06173237302786794
0.03538623783089401
0.07862999804517043
-0.06828632646007471
0.03913542869023044
0.042353492710050594
-0.03042909833876993
-0.016580854402266535
0.027401763301517362
-0.03326692981954373
0.06799576736152081
-0.039774057340869876
-0.011744783630579597
-0.08986758401385497
0.11347819056613069
0.0019075925002047791
0.04538314711677225
-0.06241686432993874
-0.004659135744685898
-0.004958953497677963
0.012741764131130665
0.057720403860383254
-0.029510673155311248
-0.012800969284908106
0.03899701564958915
0.01744236915661607
-0.003178212753621708
-0.023414460426292565
-0.03534982842464582
0.03561857285637839
-0.004926869377525345
-0.06212195169685927
-0.03553468148249242
0.03615637554126524
0.019557983179525423
0.02256550739774299
-0.026022997829821388
0.006240348945183051
0.029311192987663867
0.009730861726369507
0.0956723902017263
0.1095272626796175
0.022826291333136826
-0.05475334204936588
0.030078301581657696
0.006595573294740854
-0.001746927631220286
0.0069264783676612806
-0.09847294059361367
-0.06779884284816602
-0.00618650899830913
0.010765634859708221
0.022882124989454796
-0.058708534944965564
0.00794440404169437
-0.006360096863009476
-0.011799772082226805
0.054894347686785375
0.02958661374666295
0.05332612516216056
-0.07355671600888246
-0.024025792142883966
-0.022092562672089377
0.0053346100152100485
-0.0007771456270053133
-0.10244468685642827
-0.09187120655217745
-0.010853968132860946
0.05080283822584104
0.006618881491972612
-0.03591998721899401
0.09371919624697894
-0.002031265834197945
0.05675357841161456
-0.008161772157530481
0.05517856261828369
-0.03407371937457782
-0.0017088627406541487
-0.0016443661412181886
0.06900127958168248
0.052340435818011156
0.0034677813435444005
-0.027841286934818438
-0.04916247026299149
-0.01400752753473358
-0.10818968534889771
0.03902353106454098
0.002699861145694805
0.06955379538302119
0.03615913797344434
0.039603505306094584
-0.16517828633394016
0.011935969098853019
-0.028479157807767413
0.011768411622594854
0.03964437308960747
0.019371004295136416
-0.007180618218844324
-0.0643106128795105
-0.03913154193567164
0.0018978241510933897
-0.028369448507767698
-0.09373620223589961
-0.026436182576926023
-0.028477829240899616
0.029430386627942208
-0.05330905345632554
-8.433503322224696e-05
-0.008866343674884309
0.04332846076957496
0.0026950879040369994
0.004955175101921186
0.0009518863522896651
0.04717379641759074
0.0032376100740786427
0.0752632514342188
-0.0033937793114413523
0.0021757690916017498
0.013723416992951074
0.04537371779071293
-0.0032092127462847696
-0.018929619765239828
-0.03445711440799331
0.02846501977396476
-0.03593749378232127
0.021911637942618897
-0.026631257230301908
-0.0432107011734002
0.03224021278226687
-0.01404993250703855
-0.10883592163047431
0.019795246038902856
-0.03136876873565788
0.02038839135558388
0.06862878230018264
-0.06512157803083705
-0.020169354698531677
-0.06338611527408623
0.06589404824164057
0.07095973278752798
-0.044414289495102
-0.03181382484622965
-0.0768008231128375
0.05218934699517778
0.06156644387327214
-0.027201868651003453
-0.005497606567467311
0.028761733016557867
-0.09915407020722304
0.03659371892116254
0.08277167924449023
-0.006898189929340236
0.09171222870658181
0.5011680306297488
0.9649833270744476
0.5731627508431545
0.05113223801631458
0.1032135100568291
-0.0389962197894139
0.017887117965638355
0.006588519765807409
-0.06489013622235483
0.0035296355274495265
-0.010753204631493969
0.11207864477752463
0.029413071920591845
0.059001929513722275
-0.0934243133484064
0.06177916682797953
-0.06420914076209873
-0.043850489704330343
0.019637084762616806
0.035817404259492834
0.038623163011601194
-0.026957652060161742
0.10142727407706076
-0.058435049228878023
-0.05016542165268374
0.04196360553647475
-0.021769080150673692
0.04076998845627123
-0.0620500687586296
0.005236560634954774
0.04713853997270762
-0.017638620874336094
0.017914455122019928
0.13954506334460254
-0.05989731073825308
0.06206276139512976
0.0363901828658044
-0.06958649079682916
0.006987166773793913
-0.025528739802029105
-0.029798436828051784
0.02371588967141345
-0.02117596768100921
-0.0009169034260712923
-0.019484103923883826
0.04956831313319044
-0.007945119491008575
-0.051459958678598296
0.014540688253124262
0.003910675295855415
0.05271364618438865
0.044164324630479326
-0.08063267476640534
-0.05007561845950941
-0.0006036005845225565
0.04720327632207408
0.04888901813756144
0.054927010659734814
0.07211290485939859
-0.03328365785438007
-0.002685217791919528
-0.03192993232332846
0.06126533191842032
-0.013626554130019786
-0.022874549889621846
-0.100863989353927
-0.02955203937853609
0.02641468712736755
-0.015875531918632745
-0.09926005055419407
-0.08614072352953725
0.0632618059250228
0.020842388267392147
0.007859494520644588
0.048287642649262864
-0.03189660944650173
-0.042872958769735715
0.09395033038839307
0.01876291193093693
0.00428500395002492
-0.04800953440027144
-0.02528686500406918
-0.03314397003166269
0.00828095807312807
0.07627045763556084
0.029725041894535398
0.011298474872820354
-0.005712325064983655
-0.06552417097109288
-0.10477441963474808
-0.036603248767821006
-0.008447785387598702
-0.005976901065002154
0.02636346674830424
0.034189448414240174
0.010994142861749956
0.020214303778898823
0.03877183906001308
-0.00683958191047845
-0.043457678537418006
-0.044538958524193956
0.12790277400478609
-0.02608104060842551
0.03848987930128823
-0.04430128083198848
0.04140803317044552
-0.025627386976018088
0.008998790881236889
-0.04071661369592704
0.048224305219617965
0.028878494818946467
-0.012355212097537913
0.004081900000278973
-0.024087760670504534
0.018032258039282854
0.03450571663905525
-0.049098267683386446
0.07839333733620643
0.03278325557265953
-0.04698535414732291
0.01651061021172913
0.0339018300760944
-0.0636865933862366
-0.02130134092067831
-0.022516244727339513
-0.0030121839407207403
0.04431853122810182
0.031720016789700274
0.0013854718045870238
0.025025873284178952
-0.09461434647278508
-0.010609486956420125
0.02668648654832839
-0.0467153352579452
0.038147783228047384
0.08392324818194563
-0.061526572671683724
-0.027265786692952224
-0.05837300216413628
-0.008423551637399508
0.008100437883626521
0.05838790414087626
-0.012477809790236596
-0.07045009462983268
0.05615050183980818
-0.009181987870263506
-0.03347582480453739
0.016110717447805005
0.025743429312779332
-0.02495904056262771
-0.03569046752487183
0.06249352828788327
0.0029250119598626533
0.08190874963445981
-0.029803604659996086
0.08074574407611282
0.01712928877917995
-0.03199838915702981
0.003146568837707588
0.025749792545156275
0.0784634974733559
0.031223145801102317
0.03729219847286722
-0.038392630383538656
0.03223880399894809
-0.03792642242330013
0.049995527729395625
-0.011553718177505239
-0.00498103165705937
-0.18053613299097554
-0.031463598479434536
0.07370343940194822
0.041868793681940575
0.0647271096686611
-0.0030240713939678485
-0.023883225307696498
-0.034470447821645905
-0.014935882045664275
0.03311003832608404
0.04801513681487667
-0.04252850573724842
-0.05196050354042262
0.04561473209512849
-0.08364033491962483
-0.06743086736185071
-0.007066654838094872
0.0648352610442413
0.00548041599210026
0.033858537816276374
0.024184754890400117
0.09981781677301065
0.026566565125548156
0.017109743475425408
-0.04891003719585474
0.09034534613279678
0.05959809494884859
0.5599254269003042
0.9193875945029587
0.4839448371388093
0.03227635926179205
0.0909181041630776
-0.057951861629005924
0.001677840244402195
-0.02839691028495845
-0.029068451231842242
0.03107258620521753
-0.03766437202433523
0.010793852198393433
-0.09387322963804885
-0.02625593029122332
-0.012177283254043882
0.012329754933734678
0.008012118683033831
0.007941615753837184
0.042509230833952305
-0.006387755920566638
0.03509770519845356
-0.02267408548741502
-0.024280926267000354
-0.03064432057010674
-0.0021005022774018885
-0.03079467448354281
-0.016254119923692006
0.027346750973650382
-0.016111522532789607
-0.010751035372312657
-0.04248689615130918
0.016782633004166426
-0.023644005102539882
-0.09062495504910603
-0.021212420407998443
-0.07902195961249883
-0.058743731381671355
0.04679197594357745
-0.03249395467029178
-0.05956376929088304
-0.10526715862892738
0.0003734368280852859
-0.08334039290176187
0.04968627995325367
0.08225307591740744
-0.07377800007880257
0.002084916867557108
-0.10364126356078188
0.05861780644748437
-0.03399796526688303
-0.0659674380839788
0.0483843340535882
0.00736661896643189
-0.05170725369269727
-0.034352015270625175
-0.0387949151360102
0.004408848098769949
-0.010002403677358392
-0.06649704987162863
-0.02640543649789433
-0.051562164490675015
0.016212487635484392
-0.04976530926166773
0.021023271047934874
0.08069277020049408
0.0006979035497580833
-0.061337532128604225
0.07381121881300459
-0.08009370294062924
-0.004405102451538804
-0.015836392560395273
-0.02572054780437771
0.07112573652880472
-0.001589331268454561
0.1044351677987721
0.0485658612257643
0.08477443451217678
-0.07760754525822654
0.03168709156445478
-0.019664770393347266
-0.003641056613249604
-0.07990967267595532
-0.006525731802856705
0.027617971215944472
0.047299291577469385
0.06834734212453224
-0.0003576119524543751
0.11181226666185727
-0.03524709738432851
-0.03196470531898499
0.04696235440728534
-0.01995950180608648
-0.03144541840619883
0.08860343331230092
-0.027172361559939073
-0.028747574748019547
-0.038277477866999206
-0.03462668545179161
-0.11339617063370377
-0.00712575379528998
-0.045876952575979915
-0.04430195114547512
-0.038946395481533544
-0.0855565013321387
0.05390371262274751
0.03939030337814835
0.00819680837194925
0.043050078401250164
0.012599835144934485
-0.026635240700349033
-0.07632503764344528
-0.021159511139133794
0.037183640763324574
-0.03523082418387635
-0.07266986067630209
-0.009146804215426914
0.0070680370509216585
-0.046074160583000325
0.007428171166817313
-0.0196375791586983
0.04969222489485593
0.05930915648190658
-0.09127588855447917
0.05868844643657888
0.012882981060736555
-0.05202950750676514
-0.015877965705446556
0.01658648244688226
0.07320480085558523
-0.04026474321389947
0.047747073674730904
0.10644443713644236
-0.05326691146882852
-0.0008386704791938943
-0.02984361208816292
-0.010866893474030616
0.07320174886791742
0.0011216567478427167
-0.005808895622253938
0.04787842052495628
-0.033482474862632124
-0.01734102391699445
-0.013010592898042052
0.0021108036564233645
0.02427455571557968
0.013399565598341743
-0.02476689201482597
-0.05380524779471969
-0.0401113591040401
-0.038376928133677324
0.009480963972080907
-0.036152587303240884
-0.03878164946205137
-0.04609116013214595
0.0013080291765333093
-0.03778629187875116
-0.020965894584409367
0.062093279392432615
0.051247781268696925
0.02835567948311518
-0.06586064853674477
-0.016478479862972958
-0.04920675839962491
-0.06420029063211552
-0.06525260714962103
0.09586820808398079
-0.002959109837043672
-0.021590704214437997
-0.06975901025156614
-0.0775833566627872
-0.00923006052487572
-0.005042679900738122
0.07513901234255094
-0.05581198394823214
0.056393993447331016
-0.025571087522930108
-0.02404809372988516
-0.030629186634144608
0.03016909159816472
0.02127563473815859
0.0028753658615858816
0.0979974392750216
-0.017050204702110158
0.07433025149908368
0.009148567765588499
-0.016382450880503826
-0.041207936304354736
0.07363249473187299
0.0070681937143386294
0.006756857216972312
0.0235838491448335
-0.014344282982973395
-0.004414999035789236
0.012697729452160106
0.1102586617857247
0.07478060289660601
0.008039454354294201
0.0770108138312571
-0.02423018979392351
-0.04149187855159682
-0.08180891391299239
0.07011746081071117
-0.09450580859579398
-0.026805318953996866
-0.02217011415086852
0.022050996356295677
0.023796112930457455
0.005792042038694955
-0.09345096232706607
-0.0008361215111543927
0.04036516636797389
-0.014425342192204725
0.009150163685087599
0.01645415365790684
0.4283521292933569
0.974833602999277
0.4846051025078604
0.17554360337968486
-0.07790350134565881
0.09075115438815523
-0.0334271672408844
-0.016521680940793666
-0.10043756499383345
0.010860184113321597
0.044690393564158645
0.029442684229727456
-0.0574960952519237
0.04163184522852361
0.042253077223172696
-0.014702150753147611
-0.029938928566555237
0.03305385998252218
0.029710975552404068
0.004039994238110531
-0.010068464991930214
-0.0005698186325200416
0.04897343877556512
0.09080701995079503
-0.06835272389271443
0.03378844842276043
-0.053369615274839945
0.004859475999819531
-0.0582999055761643
0.06390088770871223
0.0018164264193446895
0.0585694709787114
-0.0635295330152328
0.0005824854447070872
0.004349734603499719
-0.0021686465537790137
-0.02052597577816311
0.05892369492622166
0.027792118428313292
0.11719270307249202
0.07393532636189597
0.00786611715344193
-0.07085752157662208
0.017290527189414796
-0.021491988705871018
0.05840081625813767
-0.034929549914688475
0.046790415298369206
0.025384702930110803
0.011527019123580793
0.053604795626870406
0.0642552123537596
-0.008931584649421237
-0.007231126560559315
0.05447666930076095
0.13385053732359217
0.062182838421023096
0.005397769797379301
0.018751575446359248
-0.12278956158086872
0.047158890652492104
0.08066897012035018
0.0506086040273209
-0.033585421289589475
-0.027625570870184232
0.10273691106559257
-0.0387665875124713
0.021861268957042504
-0.04726597483067073
0.06682456020748294
0.04218539911655403
0.07852071745647149
-0.007310120174026696
-0.042756872242380305
0.07362921517109244
-0.06740390129484818
0.11961436994768489
0.015126821945431721
-0.01832766163413951
0.060996427916783225
-0.02659114467867764
0.0057123292059322595
0.030950914903302675
0.09334863753279689
0.014749579750222275
0.03852613984185464
-0.044714654375871334
0.039461138763397026
0.000687976381677613
0.010341521284978587
-0.0591610127305148
0.10182211997149954
-0.03493228376980174
0.09499221331130665
-0.09253919280328797
-0.040662915258813166
0.03775525784090311
0.0025269289278089767
0.016909001379606967
0.10810410619056593
-0.04392530459355562
-0.0452257483867379
0.03733217802674837
0.03725881937131895
-0.09880586863682203
0.01948971839288457
0.06695531937908913
-0.08308232299360446
-0.03475901785849386
0.03702626441141942
0.13019313700924695
0.08766663833856864
0.045803466874470046
0.07497597031584786
-0.009496515982737317
0.02746831050795654
0.04288174357204721
-0.06997589189719532
-0.014245186062055685
0.029236601146656657
-0.007085320817268938
0.007558991522158981
-0.01274374306160251
0.00379180478518689
0.08044373693226281
0.05254010560132998
0.02425269628180611
0.02134415344621127
0.04812370139915434
-0.11224328529940163
-0.01965446846655489
0.04529212164064353
0.07006091758522574
0.04685383933907753
-0.015881143933370673
-0.009355213201464813
-0.06059984501835565
0.012975998514141166
0.03060912017393253
0.030614055518906547
-0.05965948745878004
0.019722980495877684
-0.03707647954685308
-0.05369936708861566
0.012640932793570923
0.0626730269091541
-0.01721444833450608
-0.032004930172442096
0.015553002935545054
0.015292762245315837
-0.11278771466959348
-0.057744829175156234
-0.004530613745026598
0.07319406106369024
-0.03600833905226592
-0.05851174320024445
0.021324943284408752
0.04368193878238548
-0.01279202373651353
0.002744875334012806
-0.0076727714571954335
-0.0397131193956855
-0.024771106015746346
-0.025529340859071686
-0.0702454480558337
0.03015302668090901
-0.012195006742102442
0.001037203581201786
-0.06821006543579147
0.06281139782611367
-0.003943691711977313
0.014185895423971813
0.030627480680310695
-0.04858801707874867
0.06678940245556796
-0.06629486837029566
0.0008979753123087993
-0.061372064917232017
0.040837048810311624
-0.007896687141181184
-0.005542590926349807
-0.06473850114422915
0.0482646765628538
0.05611749539481839
-0.038470076876138265
-0.0920474464607923
0.0465140796859594
0.018267610105621477
-0.04497745839119882
0.052607571934305965
0.03470981298431188
-0.006849238207088229
-0.09214620155250303
0.0008736725361749337
0.03628380538519758
0.03276538528648261
0.043505843250995595
-0.03535099084609999
0.04981168016110227
-0.05388257008531401
-0.11156290087236267
-0.03509969636277884
-0.056338284647947684
0.12796697929170303
0.48592125659671564
0.9573131954267411
0.48216859111883215
0.07079808444655034
-0.056974824826885984
0.012058205768947165
0.010954582285052271
-0.10230911890179442
0.035039436593079766
-0.05310657316251585
0.04070228512779894
-0.037958673809066694
0.03411025817070242
-0.009524070877131474
0.07601951125712984
-0.10290233678059502
-0.014594987848389272
-0.008014366508003983
0.07389082858922104
-0.1225416488116477
0.011786065641385901
0.002615337323513286
0.049784374919859375
-0.025725219216900463
0.015540328974128473
0.05004397247657867
0.03646658998801954
0.014772667912291601
-0.06438953744379847
0.037329592775937205
0.027378667378773258
0.08987375877534967
-0.022987675937881067
-0.06188834654893524
-0.007861228200356202
-0.019407074753130506
-0.0456631395963456
-0.05774270658454377
0.011812212935938766
-0.0029443805693163414
0.07665168228100244
0.0739007710567838
0.06952931923910986
-0.05822622049099734
0.052239077901515885
0.0053489586057611
0.02183663964334605
0.1330359538063813
-0.023998426657410102
0.008722388280885451
-0.08406898395813917
0.02942922431123901
0.06734394869150863
-0.038274961958912695
-0.01159182676362796
0.03257256770947669
0.013544078648565622
-0.07697107870809616
-0.038914248361900355
-0.054079061304436904
0.09766592868652335
0.07114047408143158
-0.11330090881293396
0.08694280299783974
0.004617520781003641
-0.041110187930050265
-0.04041788589711016
-0.00956259856941214
-0.009405806182386093
0.032132356622646345
0.05354437457497657
-0.023167935496657723
0.01878131532235912
-0.04973649632618968
0.01254379895533541
0.07469761059389134
-0.07210319508377566
-0.016110691591375677
0.0818699980190236
-0.04321827099536334
0.005875571986572859
-0.07175195382364712
-0.004575520104181534
0.10274607255001439
-0.025343021562083262
-0.010312938983635373
0.014885175856421226
0.00913156968199866
-0.03406675395108461
0.02405469041700152
-0.053532447922487285
-0.17110740462732574
0.09260147410122826
0.030514310689726234
0.12576687840855386
0.061972434960399475
0.0035866290893480607
-0.022238978154353425
0.006498529837311465
-0.03723033370956074
-0.0070140373308688695
0.02522943740560715
0.05751967544310898
0.05862325490879035
0.04962570873656066
0.10056457613631274
0.05878630025778112
-0.011108686511592247
0.0739908386447676
-0.00765581684947122
-0.060114919365562194
0.0200558817828009
-0.07399597594432339
0.02226998985118571
-0.011125450017762281
0.019926172068471432
0.044764482198152114
0.06618295813396441
0.06162923487322919
0.05559909384022619
0.0029230069759696104
0.050424680653985345
0.017377692296537087
-0.0035993622539695867
0.010169910050845858
-0.0008494565998242691
-0.006812241919238769
0.059079623264033744
0.017857632748449547
0.06229656160742413
-0.0019430697138119691
-0.010861363785298894
-0.006422429782261996
-0.028479859948813725
-0.04273791343117506
-0.0019037757335389417
0.028755571026205767
-0.04098169189360034
-0.047286966136334097
0.03369129075617647
-0.04366955073529783
-0.0023268930955756893
0.07573468425706177
-0.04035869983188995
-0.008837424056483054
-0.0009929876470672646
0.04315572562508267
-0.004289397038165727
0.09175810410462336
0.11365025860172616
0.013186427834982976
0.16524163921609497
0.029216798567751685
0.04484450194943612
0.038445958455422855
0.013998745213353753
0.03138389601046482
-0.08066239322295975
-0.0029352403625918758
-0.002883896684141369
-0.048819501483191606
0.011311162830460048
-0.059653408167442745
0.010668980051995031
0.013737368051819347
0.05548667845915824
-0.036494437291754965
0.04347565531023978
-0.014037034349757407
0.005386691400641429
0.053960955601316564
-0.05612364832681928
-0.0009989614153456923
-0.006667454856227457
-0.03654097602393899
-0.0565193423798259
0.08973934593325322
0.02193770873600376
0.017701856095536702
-0.15084531361639733
0.021206999161603526
0.017465596260613468
-0.003588381571154632
-0.02124343348518293
0.001009752779833688
0.05221122520176308
-0.061563642886778916
-0.004150527334265477
0.027184435767794758
0.060212012439071996
-0.05819969007785778
0.06043771263507556
-0.032315375293390916
0.022977570539354647
-0.012993251310942314
0.02642812490104171
-0.04361085810652107
-0.06460396595260075
0.030866873433761974
0.10369591125470681
-0.015121283883800272
-0.012576550535096554
0.04211144477638815
0.10044482501852857
0.4527194615799426
0.979125550670872
0.5575093658808614
0.1575485710498225
0.003488450437650436
0.046061505055849196
0.0882170730397971
-0.03467827996927443
0.06819164826830644
0.058244558240327975
-0.02310220387339017
0.0831309838151028
0.05508430226606288
0.016792181877627915
0.0064417427211592194
0.06277813701780247
0.02843417325268261
-0.030176382171132655
-0.016180113464576477
0.02960276267292027
-0.031180308940314434
-0.0015774706297103768
0.01616176029409507
-0.03142520116759894
-0.020117026543759083
-0.015417320969832199
-0.014235472294989605
0.015239595840915394
0.11021827790277426
-0.05976196796629521
0.10152727488842764
0.04070875722737826
-0.045424365811144674
-0.03147338487552836
0.045255327844368254
0.014902240999280798
0.02116204126956061
0.022640338212116043
-0.009880875196845188
0.01663285062800533
0.07901646240715325
-0.04409732927787138
-0.015679710601385063
-0.012047736975378148
0.022696477874084804
-0.01902015143947349
0.063909951565879
0.18788453450831555
-0.03148991713481141
0.00932818914206217
-0.007006535454041027
0.02428667378795345
-0.06244370269288523
0.022295533010099004
-0.04201590299592958
0.0157355400060215
0.030312135419671555
0.03944201950752218
-0.06725048253411811
-0.07189753788413447
-0.0019998053642235228
-0.08872244827850284
0.04557018697009421
0.05908036063524759
0.06274085408233396
-0.06553012573448108
0.0074019322943099115
0.0010258545140217463
0.04132211582956623
0.02968046928072536
0.010877880803472158
-0.004822731147410535
-0.03012637416927974
-0.05232033464505895
0.039828992446065734
0.0011334560459140353
-0.06948163822651113
0.047083887916104156
0.039990877086586364
0.09454577388399159
0.04312372401011691
0.11356140503033163
0.05032112072131939
-0.10584599763275016
0.02854942699869579
-0.010207002717083925
-0.07193437004642948
0.010316402421126641
0.040352746805153744
0.00965601882795308
0.023471214173130226
-0.07491819548080018
0.010574227640691302
-0.06341908707037021
-0.052870004074879906
0.012254649692682605
-0.05013439903784792
-0.004611495295382907
-0.00670621692346786
-0.03246170575809575
-0.01835792771486709
0.07045270622524892
0.011718499129962784
-0.04675654607415006
0.07749522180001242
0.023698528843640845
0.052013176761476015
-0.04539690338508801
-0.0008936924407748265
-0.03499127167691343
-0.010024361180362732
0.03325622878033643
-0.007225305221047834
0.036573151481278335
-0.028918982815113688
-0.002726514282570394
-0.03149725565788753
-0.1607772707473673
-0.022491549881679822
-0.06657808503666666
0.09669315933361261
-0.027878019152737132
0.025925164501216527
0.030800630317262476
0.005137081467227668
-0.031158382535517722
-0.06996984644424886
-4.222871926518301e-05
0.03609443140117688
0.025382706411443114
0.0761410544385304
-0.0376333192336345
0.008332687713433188
0.01923306480902081
-0.03483439819988914
-0.01769368089262669
-0.0028640338787839933
0.0633614875407875
-0.0844052023186989
-0.0019495454607558799
0.006001567331469805
0.011264954450840851
-0.0630821007132884
0.011835402925794866
-0.024108875536095493
-0.0405084800547681
-0.04394091165064512
0.03344820238401707
0.015266138197914059
0.05799098932946827
0.019570703831515948
-0.024985531961127332
0.04293117888124061
0.049715819927422966
-0.055559058207582446
0.11233198699804632
0.035874039984452565
-0.036874569973424254
-0.05638305917190237
-0.005766477721199387
0.07893977351504256
-0.021420089991540152
-0.12724384171765524
-0.09007449871875582
-0.03326516492214574
0.05130422823238964
0.05399457966764931
-0.05015066025610772
-0.03479244204979742
-0.02886604631155198
-0.007313609059960701
0.01992473593330784
0.014869051854386185
0.050279845474042885
-0.03143236391177175
0.05821966363851858
0.05038274504883253
0.04142659437546122
-0.014266291758883859
0.07288325824642065
0.009397126328371716
-0.004832780881800096
-0.036090447698492456
-0.026292255548212434
0.03706218773327039
-0.013913499958528936
0.0567425009685924
0.015776338227381302
-0.0010167096988784761
0.0817482953098474
-0.014257697801027034
-0.05397126759387421
-0.016411694387750125
0.07055333546877147
-0.008784045342322874
0.06210391968141685
-0.03185205893109
0.015296478333636402
-0.02496237266554092
-0.05117910094042662
-0.02808084331763578
-0.04450636139630776
-0.03211986222296633
-0.047497350905336945
-0.007345971926242971
0.011432696655255491
-0.050625227519414
-0.018796735300760013
-0.06012454361406858
0.013107242825673705
0.0006869870656567578
0.5277959259272207
1.019095417606219
0.4695643273807063
0.13280313042023795
0.027899230607050737
0.00455147011906302
0.03842902061361937
-0.01681573641372267
0.02603242664285445
0.00368755499736991
-0.005433387262535369
0.12171197725094554
0.007860653491988208
0.04402320292160744
0.05408707203910329
-0.07011896332716112
0.09875445773332535
0.05625491543925674
0.021656054850898904
0.04646750574865312
-0.002928827961026089
0.04547874294145863
0.011604152341451028
-0.00701670680112174
-0.05803958603785449
0.06197379194128058
-0.05472083286030234
0.017153850901912064
0.018443991938112615
0.056325166966234845
0.00923937434000144
-0.011084227078269376
-0.010389567734938841
-0.008341223235796459
-0.015471383812210651
0.007372587784030285
0.02615189031732087
0.0940210119243023
0.06932526587231776
0.018558934199420948
-0.02343064606833804
-0.009375002824926315
-0.038105426933372336
-0.07864204691008937
0.044545612710056165
0.0596614828388066
-0.03231124782298634
0.0696249026309534
0.0414889990238353
0.04367774773872795
-0.020770268370556646
-0.03484201143639322
-0.05279074544454193
0.05195381228206333
0.01044593070310436
0.0628343027881814
-0.0829087777850796
-0.012120239997031976
0.009579873494353033
-0.021670410404050967
-0.008435912555168203
-0.03173377547252945
0.0712495008991056
0.03905367312841776
0.03052089386082812
-0.05471932195127689
-0.027324532689214323
-0.05151534737490398
-0.1318689092336331
0.024281038331149956
0.0037461156681172867
0.07849148518176687
0.10565085635593899
0.02732334519728002
-0.015554797410775556
4.454939248779331e-05
0.009246517009816475
0.06137598538706582
0.005620767903989722
0.041606659926119866
-0.01703131078939218
0.012445813837101728
0.08698398585772091
-0.01356556007782489
-0.01254643071995952
0.0051828705261993705
-0.0071927650864774305
-0.050740925972068855
0.04722601194312259
0.04034756116477585
-0.04324640504798044
0.045833508553308366
-0.058486222343248254
0.036153081266890826
0.03903093087686472
0.05184102730622642
0.036977264246372286
-0.029202571603997918
-0.03293250365733726
0.02752571517299926
0.0253911530432923
-0.03400179456926898
0.016675139351883018
-0.05343678123334995
0.011558481580944859
0.028468371422157475
0.0017240483289902011
0.037031796581230514
0.09287498385890507
-0.023367361723175436
-0.005642697136104869
-0.07148941365901189
0.0804645459338591
0.03953491106336021
-0.004479391040085308
-0.05327522204324995
0.021996338688396434
-0.12697047317219662
0.03300618671352402
0.005148197499170996
-0.06418821527122043
0.028656526508090193
0.07930491737446102
0.005340669952486067
-0.09977794646851834
-0.09666020624234024
0.05235166541965865
0.008744126109518403
-0.024884692549528138
-0.07293356086877338
0.02181883267145633
0.014086935669975554
-0.0013280161977005057
-0.0954139691917217
0.04966565058748021
0.002869853253395926
0.11957424171207914
0.05558354123864117
-0.019159656144966588
0.029770562382806728
0.017086769170397486
0.0497990784502687
-0.05292490186030514
-0.011345237887119065
0.035310359059700806
0.020360835324186394
-0.0069873920107111995
0.015329220851718069
-0.026010001498727495
-0.009131234422496779
-0.08204398640799548
-0.030399958541797025
0.04056516060906059
0.07199940671784953
-0.008878800285351257
0.039409600328006826
0.010417451805715749
0.005234894023902702
0.00029280279861442827
0.043919278421044664
0.13333143557652563
-0.04522861666417352
0.023569558626546583
0.08495058923809484
-0.04689049951600616
-0.05009037962631329
-0.1257409532646386
-0.033277807762701
-0.05681769315989328
-0.07234421849173471
0.03136194583064024
0.038719385213307346
-0.015382421622878057
0.09383981034372287
-0.07034540071784955
0.03593070747850379
-0.0585559399010121
-0.02302066478522159
0.03113189000689115
0.005254003880074482
0.019259771275626312
-0.010520858497759904
0.032799814044120565
-0.027351487472528854
-0.04564413895595093
-0.003622219537537967
0.0024988095499654008
-0.0021067477717492205
-0.0015892568612143174
-0.009284731907921642
-0.03658379044606507
0.018108814056985792
0.046806539650775726
-0.045407111907523924
0.09292362209149733
0.005512976482659396
-0.02946986005842594
0.025635127302572742
-0.01974913366599147
0.09094809620125491
-0.005781211076064639
0.06682583056742337
0.08031049135855933
-0.0046701444066771436
-0.01437667561538095
0.018036008423323507
0.4820636616062492
1.0830938704429272
0.5180417068693504
0.06565743143367692
0.010467984680646076
0.012437220325699515
-0.00333194521615678
-0.011987856473342454
0.06667598095091096
0.008189194094889154
-0.05138175586254623
0.054266754530799294
0.040912466369771555
0.00432589684543351
-0.06197995756726468
0.056745385386657646
0.019872442137044158
0.02706821582043515
0.06765241484652919
0.09018211997918503
0.005150740032642195
-0.030125031499263783
-0.0666147295200835
0.017341489589992345
0.053572167392282204
0.024529454376964323
-0.08436161021761635
0.03437853283208544
-0.07641999861350915
-0.019573959498151938
0.06593512601412012
-0.017773788103251042
0.08357855690298545
0.023333178949563962
0.047327534658907655
0.026979910730720494
0.016547631575613158
-0.00692330917176085
0.003957446640212207
-0.09691625102188313
-0.013151949759062748
0.023392693293291023
0.07183831167864323
0.03976689050746801
0.005463569398940137
-0.05639024024658116
-0.045135738074059246
-0.06771590872386099
-0.0037376735644198745
0.04808302680106551
-0.01266429979649317
-0.06101693541359935
0.117459688372901
0.0168512979195388
0.08169209482116813
-0.08259202364776835
-0.005463733146122007
0.04568429735348763
0.0794420295354519
-0.019442940119277802
0.0024960539934037306
-0.049944701079979475
0.010018674487046228
0.06806542905660333
-0.026662447921958016
-0.014187887491690414
-0.014126466945786696
0.034307405037569766
0.010795382390648998
0.0587862751655168
-0.047050113748560475
0.06680893825056032
-0.012904369424497976
0.03947428617795168
-0.04652488122084582
0.044726849729281065
0.0007571624178409954
-0.04285531334113596
0.02723427617904281
-0.08261077082620688
-0.06531196205533929
0.043562128846889064
-0.07778983224045805
-0.048507168351089314
0.011813146675430666
-0.011615096885615978
0.03802186246259359
-0.031133142007385123
0.06348147833605182
0.06165361717021725
-0.04196886513559134
-0.02383332383714679
0.020735165416975062
-0.013233450901170188
-0.03224998456483067
-0.01306674647786636
-0.09245741774231683
-0.021323110474781914
-0.02708266645138578
0.009682598536412448
0.003033774825716191
-0.06370310307587437
-0.06097452893553851
0.02917183650487845
0.019249021662104866
-0.02109262651862336
-0.003225840247828798
-2.0938268436387503e-05
-0.004403376571883541
-0.03363918180422631
0.037331162267428136
-0.02306640421977844
0.0056585557549163005
0.05386812624458564
-0.06507572152871861
0.056833070339941776
-0.043435137275150575
-7.760062407584226e-05
-0.07441411418991664
-0.07315680920909871
-0.03911448859826294
0.03883793751349124
-0.08641203506101806
0.020667478159856104
-0.018220124011702494
0.1131089368219286
-0.05147851741470826
-0.026057164604832223
0.0009863542315723679
-0.03468086660520727
-0.06341994110880275
0.0004305592034993219
-0.08192202065571225
-0.025294701234478807
-0.012596744973885238
-0.06322494726143546
0.000800727146810668
-0.04280593354113937
0.039860560499572296
-0.0380060720500109
0.09553740177091033
0.041977442421402944
-0.030561338497753707
0.041568090901011684
0.030470041164606478
-0.052727506904161794
0.15170363240916526
-0.029791371908630182
-0.004592213111791868
0.04387990413486932
0.02484815334446714
-0.05463470262128838
0.04370038653836942
0.006210966211498149
0.0014489803939799059
0.04715431575198546
0.09371651963508548
0.07775829068712192
0.023528125408575132
-0.009308260701137097
-0.0923992928591428
0.0168404165430845
-0.06896124616315819
-0.04155002653277051
-0.022625504492113854
-0.04849796180091861
-0.009957369091783382
0.12728661815839226
0.01061846278670768
0.044677028112308115
0.001767605322023183
0.09149659296414746
0.03293559312828388
-0.02939715357756565
0.01692889298541291
0.008928344188166707
-0.045628025641813355
-0.03533875940920247
0.05060028481719817
-0.04208427216218884
0.07106081975111792
0.01778453794086114
-0.02032799960651784
0.07859370034015209
-0.02791721348894002
0.012263355438021763
-0.05475974108087387
0.002785355427009818
0.03535059917749829
0.053687335682432405
-0.004475614849075655
0.031094866590242617
0.007705536186047707
0.018475606864749222
-0.009759452452255422
0.08968252555537443
-0.0018136857285513102
0.03857493576303572
-0.010875648967708504
-0.03881040217273601
-0.04747614743871319
-0.03422069201312761
0.012644836481121921
-0.009183580608529248
0.06843382099197624
-0.05826497165682113
-0.03849558656591528
-0.0025090294083000932
0.05768751666385052
-0.03777754797056794
-0.0051642373286307575
-0.03155866036661044
-0.03148122201803431
-0.07269996074470407
-0.025552546071572726
0.06741452933486207
-0.05135880149631311
-0.006962239539541497
-0.0030316117295999916
-0.016329120889336645
0.049950439462369496
0.07293231956113376
-0.011354543360158627
0.020575560928553574
0.11493653953250912
0.534610684175387
1.0545001075592304
0.5801522468675508
0.14225866226577005
0.009187085408543
-0.02065287144614196
0.055065517037017134
-0.03882848826576282
-0.02341932931564724
0.00610793994512417
0.03495984475668353
-0.06934429202695074
0.05490062967134732
-0.005821901075297865
0.020957259007904884
-0.03931194176574281
0.01551460941520054
-0.053602123679041803
0.03058274676497526
-0.05757694213255241
0.0463925308877934
0.012413610633365631
0.068329977615103
-0.058553478478728264
0.050314285635680904
-0.008813670992058148
0.0823257320053734
-0.01742570187255575
0.04870085712916784
-0.022348038536302576
0.010156571005643324
-0.07148989572708071
0.024010177129397604
0.10772937548775546
-0.047546859817509834
0.10949864616490655
-0.05188338093270578
-0.01470918904922864
-0.0380153695817295
-0.04249973775069428
-0.027210963933291116
-0.031454245660952666
0.028362100945357495
0.14387079794426075
0.014746274458458176
0.0030859209381986336
0.07368017366850536
-0.007387286572774614
0.042134279599391526
-0.021148566787926627
0.009728107604345873
0.011656019344428968
0.048720743809383
-0.04350130963312694
0.012600462066774301
0.12779793895985547
0.08271761889495642
0.012355373678310194
0.01452442192115041
-0.11211047373639514
0.07604382113001132
-0.012915143745382794
-0.025786656596399116
0.08782970675548593
0.06757493732980752
0.000337552230039558
0.11359622492704856
0.06131617768459066
-0.11315158157681365
0.03277442717192116
0.015478040118658163
-0.05331278893498054
0.0027134023644606615
-0.007605801443850719
-0.03898882754506881
-0.025756819482428275
-0.07455299656583722
0.05247874206906292
0.07635271048425639
-0.038469505734161455
0.010052222122891724
-0.04757096416338886
0.03307731568078742
-0.030606508627773556
-0.011130547637234398
0.05535506344794969
-0.004981867929248988
-0.06339641704125552
-0.06665794570980314
0.033984819981319296
-0.0031138870689750558
-0.004895527245028726
-0.08529747465960975
-0.0801531184247696
-0.11065246355664596
0.061824046403404255
0.07815806743214865
-0.06943743878410442
-0.058252514927501234
-0.026941316904515306
0.007702974546362883
0.021431786443260156
0.025363470820973368
-0.04357975868457356
-0.010649403546079274
-0.028866875199115134
-0.006438383033958337
-0.056228468086746454
0.002645688834862818
0.06975639000569851
-0.003164409629620515
0.031355012690707645
0.0105030646344532
0.04725919783065177
0.0028204848603936854
0.04686459716085148
0.02724389638301619
-0.053072885051199316
-0.05437902226275579
-0.02966893081629267
0.026570115209295586
-0.028335817586257042
-0.019520399616956546
0.025894510484621935
-0.08115312913777886
0.0946681577402795
-0.027471308354218012
-0.0475569459935428
-0.014744788297182463
0.011360482056724196
0.009587296182821746
-0.019099287789463203
0.02819754982145052
0.002775880602067551
-0.036933620011974186
-0.046530499396046046
0.02025072805177351
-0.05075655642637662
-0.011586971630147713
-0.0617142160340273
0.04551165003733376
0.07563616103590122
-0.039315419805183625
0.061141409042104425
0.10128358145020105
-0.05847887915985455
0.061577919358494104
0.010073955587896326
-0.10940152659781646
0.04814511187370452
-0.09260628610451975
0.0006302859831669886
0.014709947859438636
0.07276588536937502
-0.02358913510849708
0.023713803128954884
-0.05702424104782342
-0.053580340789091886
0.008403344349789494
-0.03794727710777809
-0.011084299814708156
0.055767158735291804
-0.04722912065785489
-0.025120547094246368
0.0857801718034975
-0.009413322968508789
0.021050694586869624
-0.03957303212101474
-0.050727728939538475
-0.035183119532523545
0.0834255071426161
-0.0771250981296998
0.05141771585479371
-0.10104891562137826
0.022617648848670648
0.05279720862354623
-0.028757037388671886
-0.06782302546246098
0.07783250666831723
-0.04134559303858343
0.021479961743122854
-0.023455496156043545
-0.049683635943022546
-0.03967724192459954
0.016812010353728604
-0.02952823273055375
-0.06274109636172949
0.029895181197055615
-0.044924949075555526
0.06602416043539992
-0.11145912392420519
-0.031272308146436716
-0.01685782471126863
-0.0016704256452948663
-0.053828523710564596
-0.03890965940966132
0.03120751158698387
0.03276261395911664
-0.03591850465882354
0.04545264222409811
-0.03463244130935817
0.01579170304709478
0.03409440519486242
-0.020331018629993036
-0.057800879069329264
0.07490650461737558
0.07708900241277009
0.5140217629764454
1.0479434336216715
0.41353393061403915
0.06041180326348598
0.031149612698376117
0.0026426502670247793
-0.09793862888319604
0.01780848102309184
-0.003142806506666439
0.020477507698817773
0.022377263408294018
0.015991752477700075
-0.02621443269264382
-0.01950200404170175
-0.040209456892487304
-0.08274836082599628
0.09801130618810314
-0.0050440728713845445
0.06444881478316122
-0.06915697023023203
-0.0276531854535924
0.007358709037466178
-0.02054965112351754
-0.05956799924463461
0.03863569855013354
-0.027589598174056193
0.04618561285851387
-0.03867246986737614
-0.06370103658110483
-0.005194432957903661
-0.034739896252683485
0.0328110195443344
-0.05774860709114924
0.08008657905137319
-0.04598443547790758
0.09627203151193624
0.06337073722935455
0.03638819905946083
-0.029109239674369947
-0.0798808567476626
0.0020252924499866427
-0.03899426611661518
-0.02726495603719552
-0.06703666344534553
-0.0019297936194027255
0.0012416249976260141
-0.022285583154152883
-0.014913996234745382
-0.03550988591076234
-0.061836288772349784
0.03205247908461791
-0.03741217309426952
-0.008595592712580343
0.07028095796043798
0.0069307281699980405
-0.017875339019447704
0.024241983704583005
-0.011412249051807925
-0.027308972316247734
0.025628086944443254
0.004099639697855269
-0.06289301543941654
-0.04035884754530088
0.09563960255378795
-0.060692617088365576
-0.020374024215203183
-0.08468545756124826
-0.011424383069632857
0.0420074655808472
0.05248085035151454
-0.016500131605546885
-0.03182971067836939
-0.07128029074550656
0.00405842268874929
-0.010666222544410504
0.044676835251447986
0.06653729584230482
0.018350534850314442
-0.02500218369634072
0.11396104330880559
0.042737236626186746
-0.04864473392294236
-0.09286502019535876
-0.010738629198503765
-0.008574911097055127
0.061146473104607385
-0.017860316976101433
0.03603989040515481
0.017084236476415125
0.03815249250884726
0.0312926216126107
0.04229522340023037
-0.0624467191793489
0.0022003789259824706
0.05047652892072967
-0.09662242309047996
-0.0036619092756998216
0.08126989041370684
0.011654302177389842
0.017464158741872605
-0.0196225536922459
0.008702949905904964
-0.05277755603103812
-0.03214735613580223
0.022457744387631928
0.023260715346284988
0.004554987216719377
0.03367806577197513
-0.0521485188697535
0.013596605497822718
0.002166798788031845
-0.03297318113195657
0.05266850393945374
0.023982187537831545
0.030022056162622986
0.044896390866888125
-0.0024451174966343657
-0.003213357372707615
-0.06540956895959203
-0.0064408196633387975
0.0393285106478155
0.09455146753232736
0.05456237816668263
0.009549207596747718
-0.06658612539365379
0.01522168609424672
-0.07015478982753699
0.06152494913140952
-0.005119217398459615
-0.04921683483423418
0.0258810899909844
-0.06781384548471853
0.10112543475880945
-0.0755816698907039
0.03165645905098762
0.057907912846473134
0.003944441177793353
0.025820239269692315
0.03682074802498949
-0.06109249425433684
-0.06937508517339559
-0.018621967491885938
0.021185504757699324
-0.03176239618557723
-0.008146703152275118
-0.015836541922087864
-0.041249069566602084
0.03063708057513565
-0.05631561070489104
0.012256987730433058
-0.029425378960473137
0.01498435610216492
0.09700004575189429
0.032823660961042105
-0.013979052637454742
0.011915967204138097
0.028895603221739886
0.02729029907274665
0.04711378482728018
0.018029864612398083
0.016809044428480063
0.007035487905641804
-0.06290177507714934
-0.0009447197501083137
-0.013111935261827277
0.06110973861948585
-0.04276739040655419
0.0002142565398279465
0.038413275457762124
0.08435100840537582
-0.06054377318510702
0.10817449758646068
-0.01418900575219791
0.11093750388426958
0.09782770669263514
0.028544851971532392
-0.05645236056146352
-0.15179122829933708
-0.032918555316356006
-0.03436370815532843
-0.11816888640275419
-0.04498225102639937
-0.008720662040327577
-0.036643379774361724
-0.03319751779931555
0.15021129106495826
0.012362618535499971
-0.0013169400657257202
-0.07624988147449968
-0.008429025936135757
0.04232146802619616
-0.04930303091237173
-0.06306676351253433
-0.01198133787455929
-0.0716593633770248
0.0831784282995723
-0.1329118206652115
-0.019821395867850002
0.09560927950733218
0.46700301822491314
1.0221028687071358
0.5169783846093251
0.11322403114554357
0.005202912468196996
-0.006388064129710581
-0.01652585030242842
-0.08975634049362181
0.016591930586461134
0.0038854005794487357
-0.08418261837572215
-0.0059045234243701224
0.01825437268578944
0.04498479274870937
0.07792597704697746
-0.015369458960091377
-0.007775459936329953
-0.02458283759146464
0.012230226291745933
-4.865740747382091e-05
-0.04383396433741346
0.005363708197690709
0.09185495186096237
-0.072713727056753
-0.01971055581701619
-0.005354885765448233
0.011765902190823112
-0.038294080958263144
-0.024805394456280234
-0.08383013539992933
0.03136984732252527
0.04012915545135709
0.052178874338882276
0.05392395453608019
0.04687167505548134
0.0634035922696091
-0.0360185703207232
0.02983256707436841
0.011708124415994324
-0.06882717320927331
-0.04162658499142908
-0.024203155773970406
0.0312002374428481
-0.01534457123598093
0.08006716885786526
-0.02930610180118677
-0.04471780472954279
-0.031867926326650996
0.11429838380845384
-0.06474995044894119
-0.08107018054427496
-0.012121341435683018
-0.026190512158386733
-0.07426971908737846
-0.06597346514937472
0.10361442576859946
0.009994572946593816
-0.03240184515380448
-0.04475543016251977
0.06830813286472082
-0.1062691453619567
-0.01765935602281446
-0.051869133766844926
0.008541328099559247
-0.09391748880498757
-0.029384893129687353
-0.01321554476561164
0.10254354635583121
-0.02239336522491342
-0.08068115550248627
-0.08632425153796845
-0.056045751244574754
0.01675955226591661
-0.04437150246792601
0.019298512621886935
0.06129292406689812
0.022902704740341423
-0.00763916253040652
-0.048506295512596664
0.026321516566007088
-0.012933686460755487
-0.07828702202924544
0.00023012707886553167
0.022871720259499333
-0.018823049054392253
-0.021057626471185593
-1.3615835797913163e-05
0.05796452421633294
-0.08973719819900439
-0.07314010136061151
0.00250711293857479
-0.00555951717222667
-0.019023332292506988
0.008290322391253773
-0.005962387452757941
-0.007064611731339499
0.007794930079239256
-0.04408336876764918
0.0888141526932959
0.0006120375354212755
-0.03578314072292762
-0.026138844272309277
0.0444114943361085
-0.004246567779389566
-0.004346276254923314
0.010684536904968922
-0.11440854264157684
0.0018688999406098143
-0.023444678548030583
0.06124123101585589
-0.07792149225443257
-0.062296688614936147
0.009995670777570357
0.06959218880672179
-0.0358209299294051
0.043516651911054624
0.03401623712847395
-0.03127742256194563
0.11799804065387975
