ecg
0.15983082203891608
0.5368597215725237
1.0252694327321206
0.49558224417085883
0.026864607845503707
-0.0066789018091946125
-0.05839845073245419
0.060025036583583095
-0.01820454639050739
-0.026109846709861242
-0.004993456513141756
-0.03569365140769389
0.00016800701397893484
-0.07057793088511752
0.062111678363685856
0.044552610237327005
-0.03144318618137992
0.051535715310736446
0.005781153587385683
-0.01896327192176866
0.06339420080708229
0.016211915781878777
-0.0034289489883371836
-0.03882958638119418
0.007972039009202887
-0.03937173140816613
-0.08267774154772212
0.03743543665634943
0.0555769915442353
0.06974274748627567
0.106777911823033
0.06715248073598233
-0.02768112089045481
0.025581658782969224
0.01128107047228682
-0.0503163337151058
-0.07251767117461815
0.024238958968072627
-0.03946710161646587
-0.03182869112973242
-0.014999687071252682
-0.02188104072104225
-0.07145076441663666
0.022280913232966788
-0.01642856626604883
-0.0015943362194395618
-0.017945872830705513
-0.05635194567918714
0.08026355265787696
0.03455433643006875
-0.03761213290818711
0.02535408405802704
-0.06330873570825499
-0.07436994679735588
0.02747581656407899
-0.027375644055286193
0.04379856729301805
0.05634042154444444
0.07801746406578675
-0.006220282392818007
-0.01757601061827017
-0.023517766047615962
0.030472290651159712
-0.0656708665730804
-0.008108399185534174
0.05934883819208201
-0.060495983876238495
0.03182827812274812
-0.002468286857902913
-0.05357767121386543
-0.04165389653433381
-0.004799358766193183
0.028886148128134694
-0.030684173263612224
0.0854527788249541
-0.008592026080052644
-0.03828617195776587
0.12331984818545233
0.023312703467932697
-0.007111821569499597
-0.08962409316455644
0.03038807939792304
-0.09140161023641408
-0.1064152266331206
0.015373965122887696
-0.039245090657784275
0.06290270571295503
-0.012212943092498867
0.04150852296665117
0.05466751132181666
0.01849762480261997
0.04123925882674482
0.018066026574567528
0.039344727104697635
0.09055521945174033
-0.07696105781640375
-0.01824905115981334
-0.05890486706136612
0.007055996849398544
-0.09857438458818663
0.012007040906802503
0.056431202670484154
0.0627299311482925
0.001144262099956618
0.0021763461203164777
-0.04404538325316011
0.0010426459647960142
-0.06876406316883137
-0.03264512065948469
0.0988580681775452
-0.059479931823045666
-0.01764835889914053
-0.03560421069680989
-0.028005946669856598
-0.015172580664137151
-0.12228179932596256
0.058743626417207484
0.06265571524139003
-0.05111511366346599
-0.053250104285757695
0.00048819985299200925
-0.0384853283834898
0.023800911475483452
-0.1111138256405291
0.05436377407490675
-0.10631906046634604
0.01757818895971788
-0.042594748649620644
-0.03648473058334891
-0.06444093727672263
0.01531272340778418
-0.020269897321605685
-0.03888442203019747
0.022084654839124113
0.07693542255322865
-0.09412329909749455
0.00043698863579372563
-0.02018041123278941
-0.009209031488449168
0.010038383410549991
0.027689194935727274
-0.018941823214742116
-0.01046451849606207
-0.04294573010997793
0.024608932021744728
0.07262167368050082
0.0756960330840315
0.09732409073916774
0.03282627429705844
-0.060983436909893135
-0.02077286652863475
-0.08142194162056446
0.04872776750246446
-0.05325632001213906
-0.06246243394885678
0.09321732371610501
0.5563484877057314
0.9620944506209351
0.5683990997337616
0.08606144512363392
0.030971493221214137
-0.10963332474699533
0.03018942743251095
-0.025892637765980234
0.027802772081219736
-0.0023900795809793504
-0.022055814896522447
-0.11451736997033601
-0.07296174248711888
-0.04310079594843799
0.041739182118411426
-0.025096921313873883
0.02328874054675296
-0.0043719474807180315
0.017790930654258737
0.03750846864954061
0.02210135459549126
-0.008372438180639983
-0.041816037427000394
-0.06729695922298949
-0.08596744803189744
0.06363631664995892
-0.052758357966831274
-0.006376011923226368
-0.006359183360570786
0.02421925601464579
0.039781171369955966
-0.02002730009836305
0.004573361447689532
0.08353202455291413
0.024753889086641487
-0.012685552447155489
0.07096658316939507
0.0018980784601822138
-0.051682566930134614
-0.09342705241120579
-0.059968324956176905
0.002816282563840869
0.033426862555139235
0.09685888528410876
0.03596402352698405
0.06110560927854928
-0.05065830806207954
0.0049573460416753
-0.09797023925978407
-0.020273042801467443
-0.04392635645095426
0.08962507566227593
0.010312512478646006
0.04382247122012864
0.07757028303225721
-0.034257610897147746
0.05056617762657151
0.02305469734217147
0.02823381699772098
0.08043564680867102
0.015484019617528126
-0.038354666617900005
-0.014991347942205038
-0.010024696017368185
0.024246989775010858
0.06808546605801412
-0.040681573682596665
0.008540584909540844
0.11330641197154474
-0.06786048021863321
0.06713066246415401
0.05336235452347781
0.058934125057701264
0.027993223607570856
0.0121484453708066
-0.02082140474892617
0.02308218499591671
0.018777764001925084
0.05800288671904291
0.020411095989083236
0.04779241300400127
0.0020630448837959197
-0.0009515691613024169
0.016277444526093796
-0.028041657580073362
-0.03779626990389395
0.026269168954695988
-0.0018261651162851747
0.010484223765555254
0.0003841158556085213
0.025169114651400943
-0.05818429819618455
0.09193471876346505
0.03068192349184534
-0.07578707821917358
-0.045778438432170665
0.0001350030177218223
0.04380315904038703
0.0873835629624707
-0.013948461258172923
0.0055930216340722575
-0.08460802317272341
-0.07895071225794886
0.020747998789123902
-0.04615887439312884
0.05314300320967991
0.02681956234988561
-0.04140082015739388
-0.013595637726005761
0.05664641527940813
-0.03777429875776765
-0.033245462425351806
-0.010645964642948463
0.049583561353809674
0.021533999351849055
0.0179498365639298
-0.06205190734261804
-0.015593507362717064
0.04421905139700754
0.023807136696474072
-0.00967544421675122
-0.04707510117490386
-0.0056852394599035735
-0.04072411802418103
0.025067631952456246
0.03577457732545183
0.044722232953531255
-0.010967565292548736
-0.062353946142450205
0.0056432885356563385
0.004673164958615615
-0.036378958495260946
0.07640307858976864
0.0499507714925523
-0.018102166881331438
-0.053111854085538326
-0.022166734548705547
-0.0022413772274080105
-0.08788786642733132
0.0334139171062459
0.053662138297313394
-0.015209385167851006
0.033034094914513916
-0.002814018600082679
0.10589017797911504
0.06143468314476574
0.03143579280725417
0.010037127126982749
0.021979723057844947
-0.005466751511850604
-0.060358682642366324
-0.0038244440534441547
0.0031814870556712248
-0.03959634605769909
0.010259015486930164
-0.044352861998349334
0.1345459920148595
0.5056849261328358
0.9023994171703271
0.4827731944867641
0.11480375213730454
-0.0025130116189010852
-0.09877299090119819
-0.013923330592725722
0.05310039973138456
0.12494151499271991
0.05570595077788274
-0.0397392612728932
-0.02972821648481899
0.01812448722897051
0.026867031099553323
-0.01610327392951144
-0.07640557341559717
-0.027972246938781926
0.08641175750168914
-0.051963521711298345
0.06382760726333468
0.03745470546500639
0.013417396019116868
-0.04651945172894961
0.0345400523596921
0.12203442001024747
0.04307551164419676
-0.09974592864479465
-0.0232484776700379
0.03769572999149559
0.0006633958965012263
-0.07281938599912596
0.028795259512456636
-0.025759506071946284
-0.006982555437976078
-0.00655069026270958
-0.14403596425954188
0.062471590087544715
0.04557269873226207
-0.05734583623366873
-0.01912354643895271
-0.06693870279980209
0.0018297570839892856
-0.07470025239234616
-0.02941549540377399
0.012978653474690191
-0.0004356498573392741
-0.057038223702993066
0.03564258358936806
0.06928361130476879
-0.044944964229833885
-0.001380134910257447
0.037087891624957785
-0.011237189481306364
-0.029079854764062798
0.02476318528915324
0.021082038793267515
0.10055450736056426
-0.012849271612303974
-0.055754859120511806
-0.006098604290024718
0.0033916297088856687
0.0006624697157806088
-0.11738643475068532
0.04419697274668579
0.0020973438972845893
0.05336790670459677
-0.015699456157341283
-0.042872844769977506
-0.03487322008200912
-0.0480150783044363
0.023480673674892677
-0.03689610134003365
0.03556180801266738
0.03162933482608687
-0.033934494963207544
0.03506719143249726
0.01098412248693127
0.021756585103820055
0.031512450800684495
0.022380993551479867
0.04035398647485487
0.003746841264584546
0.07651155098371513
0.03278825947749795
-0.030092287232921136
0.005493995601015789
-0.009744609538633514
0.04042127328083034
0.12468072334730616
0.01165866285871346
-0.019375434988581526
0.02609447063390732
-0.032586289755580526
-0.04565619592651435
0.012820341414972092
-0.015905011272405272
-0.1155224831918763
0.03257604408489047
-0.0007672777976488878
0.01900790729187984
-0.07792459572397037
0.07276487401032554
0.030579343214102602
-0.03222437235801778
-0.08151809428313221
0.01683693831280613
0.023746375630910366
0.01262854598784284
0.03516258662295231
0.039399298968746624
-0.027477256812193037
0.02546050356092068
-0.004496364607845647
-0.016631276616135848
-0.032033273875783135
-0.03090624031442679
0.002758007408150782
0.004836457587186511
0.03412404386838371
0.017572842724609457
0.055875329995813516
-0.044038251152921586
0.02682262593332642
-0.03941351427462911
-0.04993878432629698
0.029041596534490788
0.008382563212473177
-0.03789706145887602
0.06519331913130078
0.03469868523111832
-0.003792791620336503
0.09915436897243693
-0.05034871855547272
-0.016421341089151095
-0.031581866940957014
0.06496364232248417
0.011159095392230353
-0.03732441946232274
-0.059809224176847864
0.04570381653648319
-0.01498901174485682
0.030199043788435312
0.032296639097701176
-0.14986485626787063
0.03384797722923517
0.042022484104947445
-0.007645974765127655
-0.062171114006234054
0.016744902092920587
0.007292633974230155
0.10471199562086633
-0.04009115163270023
-0.015899513570929245
-0.04329042229900217
0.08859602345580636
-0.049110548698339716
0.028218961157703795
-0.041604227211855194
0.08244451531114078
0.5374305555157077
1.0346088354005722
0.5181747887390162
0.09591563622267751
0.019480359267173588
0.05931407112801921
-0.019697661641550422
-0.0006930921418622491
0.046677076642317135
0.07678623278882858
0.020958925777460124
-0.0840766521337031
0.04428987622339142
0.06296329121705556
-0.06548850847143675
-0.030955638729104014
-0.08515907423200797
0.1113627366296866
0.047268073182697316
-0.05757846617147581
-0.04604934704516022
0.004541209490533452
0.016760148092086855
0.04343066515410281
0.03244005811113366
0.018913262213932178
0.035146730828141216
0.023078234219624554
0.05706653539624699
0.040966856932636186
-0.05465254944222028
0.0323324631793971
0.0909120542222136
0.011189847688382685
0.13091381716766778
-0.014308810089646531
-0.05311287117631926
0.0020877104381791124
0.055088008755633217
0.044716415953310995
-0.03619584609013818
-0.015308551882387484
0.05210872613570932
-0.06322605970059622
-0.024751110103743056
-0.010618057857304844
0.02444441068732901
0.012423400596745553
-0.06180883671976002
0.023786008705228734
-0.012997099156702569
-0.004357664152218217
0.038855130515505126
0.013859410716745839
-0.03719231098879676
0.07009897396629876
0.0814877193991537
0.04767351873200889
-0.07737003380246342
-0.08085027305081634
0.025125219223719027
0.01652155234091293
0.02068721884571582
0.006494697863409406
0.0003615101561859349
-0.052841214085879044
-0.030849167214997364
0.021556908271212625
-0.044190318669204025
-0.11582740031217048
0.002844472167838063
-0.023180041265944366
-0.04321789076554787
-0.030987340786711184
0.05406089941299594
-0.040034444057174386
-0.0358688839256769
-0.016015856675794953
-0.06709239690399642
0.03873158298286092
0.0005612763225808533
-0.11673729536525775
0.012844196208848172
0.059894954454700416
-0.04614413884325478
0.021047913669392525
-0.08252168064517287
0.054146352552363566
0.045955246574822695
0.010264369277635953
0.015146176312287048
-0.051579186348223685
-0.0504437161916787
0.008940040364553342
-0.08248047635938564
-0.002241196830019051
0.07900954255549437
0.01142855721108047
0.09977119615572269
0.019344587256764113
0.03291818620657091
0.11699621943955513
0.04305477503497772
-0.014426248404614215
-0.01930576781494823
-0.02031438439304953
0.04035428545113256
-0.06492309734537526
0.023867624049914327
0.006882076752523173
0.010092743668345793
-0.022063991400982516
-0.0484812544297564
0.002913961384175376
-0.03877995659165307
0.014327345503043765
0.08420847713847801
0.028937479051452705
-0.07125776799822929
0.020440372646629266
-0.10084827013479275
-0.0059005733201348285
-0.01744975039557748
0.0676228473781602
-0.10790358162553629
-0.1003677423093887
0.06720373435250175
-0.0253880018285532
-0.055335386633976816
0.0891216237745704
0.01731691886635482
0.002457212643614195
0.06960848177844992
0.03934848421262858
0.008857304982827068
-0.07992001814906965
-0.008571461100318858
-0.03212550733532412
0.007385940435133638
-0.025769050399422563
-0.0022627626454467904
-0.012615744145955083
0.03933491532455592
0.047058487277975375
-0.04194461420821352
-0.0074440217526354135
-0.04460735539500324
0.041134578247494315
0.008581129516444666
0.059812762391554676
-0.06912924704170592
-0.0005119930697409202
0.044681832667000126
-0.018456977940805232
-0.008394181321413209
-0.020954611418670284
0.24902517264914661
0.5837632853666386
0.9491975993212881
0.5002411802043396
0.0989955975241172
0.018627631631851754
0.012766088669944102
-0.030758124791638898
-0.0641995973741457
-0.021344560749952824
-0.03430044443072119
-0.02262566905842557
-0.0019394624399383207
0.056223419980267246
-0.004931394142032294
0.018003997555305403
-0.029703300205617178
0.026922835229186082
-0.06110382544781682
-0.05213392564449107
-0.029225386410854887
-0.02347221222223783
0.027224963755398564
-0.016247408822163096
-0.05135562651739938
-0.046237632185346045
0.056269969223899624
0.02728972546362426
0.011255036143469208
0.0709873356522345
0.011108407567488451
-0.009535483160650247
-0.05781490447080077
-0.007124764671258161
0.034902694766407553
0.016942131521729048
0.04132447293614272
0.034082099508581896
-0.03239029302596583
-0.004658128495585636
-0.15238353387092196
-0.05740922197338081
-0.02018524706194185
-0.03454491127186569
-0.05329863243032216
-0.03816511434941785
0.05110887172362975
0.06188626221151471
-0.040531497683626516
0.034904040411541236
-0.03086374256537726
-0.0244931677902644
-0.06913581082899721
0.028240839705675005
-0.0413384243209432
0.03115176494873395
0.020791525491236123
-0.11583090020228788
-0.03653063660983193
-0.02069281191075842
-0.05828226693700024
0.09379207645048777
-0.001191388593070297
-0.003069041152106853
0.06294498734821577
-0.022018665159664615
0.03652981886461277
0.06522287726455588
0.03502919531189645
0.06319297073714994
-0.04268026008333463
-0.015586183886395311
-0.07681101051205337
0.057699758763654976
-0.009485051558595891
-0.021036810571422104
-0.021635638294343826
0.03369620892787917
0.01683506934184476
-0.044809222337259924
-0.037525021492017446
-0.00813914096301691
-0.0038581098976902257
-0.0023724106479796354
0.021982989567103494
-0.05675082314318857
-0.05668164057594839
0.012481512750630763
0.015928248273051383
0.05235485765207285
-0.07607038595789445
-0.021027562701442862
0.005006598735192935
0.07268614654233911
-0.03479878926066432
0.06631495898302825
0.019165017288859172
0.06336126993724252
0.133638863764957
-0.08303164857685506
-0.01547948236304256
-0.03568647916078784
0.17516954417848676
-0.004040889788021843
0.018613607523554034
0.021572908266358597
-0.017998774386073366
-0.044093316480732975
0.007867248063297834
-0.0067970947055999535
-0.034880510436387804
0.08460952133761085
-0.08505653703917236
0.018016872223300798
0.06574630866611637
-0.007229912654884505
-0.06478997638965327
0.04246498886560185
-0.002279455284677398
-0.07395180091572558
0.02920865645886242
-0.0029860972937800225
-0.009622398389362675
0.00908975252313089
0.041980103677587303
0.07004407193014103
0.01648758217389958
-0.0471715788972488
0.0466649958779798
0.065779121173527
-0.06805516817665394
-0.03326039892725361
0.0061416646833091565
-0.08146283318000276
-0.09565960200600512
-0.06501073620085497
-0.020914088948224337
0.0006759566067662425
-0.05126394873127295
0.03610694717494211
0.029004482146170674
0.05223688033393144
-0.03141166169721745
-0.02704306460763859
0.02452315367564613
-0.05011497220797521
0.099879688711659
0.03219741599026781
0.01233883923319224
-0.024199286637148806
0.06197284847620891
0.029801767387097073
-0.012399398692377933
-0.1136947842596538
0.09430485496449638
0.4633537425118907
1.0884899894718527
0.5271696819446179
0.10477550089422878
0.03032095896517972
-0.06599670273579432
0.004861772342490873
0.025870518039132137
0.1226953874388299
0.004979891150832725
3.343087456507137e-05
0.0014515891550427528
0.08072940510869586
0.003577753947904807
-0.08078078720730594
-0.0511266427135546
-0.07113614965236631
0.0034756866605038547
0.01363787366766319
-0.07120017568575293
-0.07911905294504794
0.0060984030481292485
-0.03579571090303132
0.04408982465959192
0.04983538692308087
-0.030005392758859658
-0.038603451201300966
-0.002287451212519314
0.0387182277693113
0.03598899371983912
0.03673076292317601
0.041853257944678715
-0.016239449119686496
0.07734140482540862
0.08801820759743766
-0.039825311210619566
0.018025012900351505
0.0404263720144486
0.08059810616824298
-0.045574001859398444
0.005230981016788254
-0.03264580385944557
0.010244504582029842
-0.0255480360135829
0.0010258131340725376
0.023478321480834487
0.0005742950650215158
0.0356474730940587
0.009647386764826139
-0.0806440939061286
-0.06973105605320745
-0.018049318760004485
-0.04026942621189729
-0.035483505197872266
-0.02118733981073406
-0.004283804323598098
-0.052522158899363305
-0.10863765423672207
0.024379143659788167
0.0666996483254168
0.056186641944521824
-0.012974097215426472
0.021201034280487804
-0.038054150721998775
0.045243293285194566
-0.006198698484459492
-0.0064119951920264305
-0.09564840807044567
0.010869457808919125
-0.02295150476835069
-0.032047551730803384
0.09807921676024928
0.06259433643324183
-0.0028181117269651087
-0.04249478510697756
-0.0008316731601493177
0.05657332266777074
-0.0008982519761090588
-0.020565788036021784
-0.014242614906886303
-0.03802842640709695
-0.05320743767945246
-0.04065511252268035
0.08361513682457695
-0.028898602926275985
0.0810437840689831
0.05332858410061497
0.0065437298581670555
0.04826841123787648
-0.04212050939203034
0.077685661747339
0.01952213521420434
-0.0051129190402907565
-0.024036458253710466
-0.0027194893381770192
-0.011495771430022964
-0.017711485181027855
-0.06306377331332973
-0.05621468464164567
-0.03425098627271996
-0.018167856245685458
0.058094811505556725
0.024967171010612063
0.014422677103981341
-0.015514670687957212
0.007790359237387398
0.034444457378406824
-0.005029954400956742
-0.039511920123419655
-0.005695138607313479
-0.1056247515815541
0.08303355622046843
-0.008542049920775353
-0.07383997847988022
-0.0008882512311933927
-0.13232465989206196
-0.023409513498032733
0.0336795637698024
-0.05919670474500656
0.00961994355470121
0.07069046261660711
-0.05738423128818342
-0.06345717391934667
0.02580251983221827
0.028231373339031536
-1.755889715009956e-05
0.0375162203811941
-0.02052372401287644
0.10554687156343562
0.06214682463334338
0.040377064438041184
-0.02627932910307791
0.027762913566513822
0.09542536819215584
-0.030487030580539493
0.057317673517566614
0.06551087066927974
-0.0174561644978003
-0.015646120107693774
-0.031112969630244555
0.017162666059313117
-0.04048691879230824
0.06364885237039869
0.03306974191477725
-0.02792060763593467
-0.01265913212141457
-0.02800453066138134
-0.020148686204617853
0.06457233109323575
0.0027393966899468773
-0.003305344439573119
-0.08031155046262123
0.00877670944181089
0.041064475523072366
0.11421278184856527
-0.08674907396139339
0.017870431360910096
-0.061550706356899756
-0.0475758366105524
0.02741476006178449
0.49190345429759735
0.9852003837928582
0.548754694907258
0.14310482444900663
0.028188859955709796
-0.025647776686525854
0.02304041201751583
0.00596650657893853
0.021476905553401524
0.03969870422799791
-0.01897372500137156
0.08710697823500646
0.13865089297673894
-0.03009500031652415
0.05480468944594655
0.0010692067187538041
0.0125813226670909
0.0439739056982871
0.03938541252862892
-0.007130463834953863
0.06654227376920377
-0.04164764392481249
0.12889262251695005
0.023202914304945133
-0.02342771113179705
0.028852520861730853
0.08164944365939615
-0.0012511435983648075
0.042081692176027995
-0.04989838844126133
0.021069056456514395
0.01374474212627608
0.0110132761782966
-0.0016009824843878997
-0.08878769245436126
0.04490898474719914
-0.1554482508930577
-0.007879566959710472
-0.10618462934887357
0.0035057796576278507
-0.0027930135927781755
0.006215910317142737
0.08960811523368468
-0.08314003814189821
0.006073872467279394
0.0919708054918934
-0.0936389735093699
0.1526025263573597
0.043723451530208554
0.0073653110949380846
-0.041112443959193515
0.029931386203585254
0.06608559052574409
-0.017394955523833033
0.04968522714478477
0.053234680319763465
-0.004091724502874465
0.008053612631779788
-0.06069248603193499
0.038744406919146046
0.03438299018183421
0.035072912935457355
-0.05472276513838862
0.03717838788738067
0.054717433512254735
-0.08607125746390176
0.03377464789969259
-0.03860477664492295
0.0011298275140649231
-0.005808717348265979
-0.052611246286866586
0.054983099089900615
0.02053163127977916
-0.03487025390382935
-0.08487603099621677
-0.0539518760625024
-0.04534042076350463
0.012223533478130105
-0.027967368430147473
-0.04396193071515043
-0.03779599450587468
0.061484588956430324
-0.037757651640995774
0.060670692009782735
-0.09528153538592994
-0.023524649620796815
-0.047080799233844284
-0.008750813366957646
0.07383203363875952
0.0007444871961426478
0.040055836325401245
-0.016357818454488516
0.09091032538287247
0.07823847769429641
-0.11392755545592764
0.06791580883511926
-0.02138572489158552
0.06256739890319483
-0.005216299232960278
-0.0971794849284286
-0.016390549203234506
0.05542382695531067
0.015785003325954478
0.04375323461950912
0.008015315877098984
-0.0750431243889419
0.04531045997975634
-0.017221236813569876
-0.0739549437025762
-0.0383102947262886
0.019371847005228624
-0.021418046755526717
0.018966872917223147
0.04534940078703914
0.012500645350380294
-0.023803446389202718
-0.0076678143424755395
0.04773573320199115
0.002045719673201042
-0.012168801434125322
-0.060414960047478296
0.03586384683467103
-0.04716101112112912
-0.08780049898216898
-0.03518817048021284
-0.0496758558083048
0.0051522159105955884
-0.030664361990840456
-0.09569327809873196
0.01645800474088633
-0.02478548657813924
0.0025424962792583447
-0.09183762119051607
0.049004870504445394
0.023526226310432934
-0.011574878915591006
0.010560498223734727
0.0780214994312063
0.023707197446151122
-0.030621671405438262
0.07728827072785
0.030938847021138062
-0.06818107817217965
0.00989665245773448
-0.06380785311222459
0.015210019604262305
0.006478519229127607
-0.01041152923354843
-0.03255201316313803
0.02337982536617946
0.013885366682721726
0.06905141836745772
0.4709444373429687
1.1099017083117642
0.5467383673591057
0.047719449822328
-0.04552934433796061
-0.04848869751545808
0.04685686497808442
-0.025757353926654264
-0.01523769973692356
0.002842948089685388
0.08607554186022899
-0.058659154969655014
0.00010677607896987119
-0.008968364891491753
-0.07252425588166243
-0.03990216556307697
-0.04960183562563652
0.012755002828992524
-0.13048879272247513
-0.011578182154267883
0.027718262766969343
-0.055146622804508855
0.06356167825634551
-0.0017776439288296289
0.05625950672123611
0.00021089125827144692
0.07812716478177137
0.016970697338086992
-0.04180781682639856
0.007475957281964477
0.004541669217469553
-0.021947510153048605
-0.014216163494451565
-0.09274091805308006
-0.0792449890564208
-0.02179738944770751
0.01461107855498637
0.020151702077951583
0.01777081319610263
-0.02607515510050161
-0.01331890809894017
-0.04334581573517973
-0.018187081835292853
-0.0018833886975923133
0.036557567107708556
-0.03112170925247954
-0.04589852546733348
0.01620921536997578
-0.05513045141290765
0.016837144916441515
0.09034637810211543
0.03322913207910493
0.025022013585417415
0.05238859258477438
0.02428012269159766
0.0010998493066308671
0.001789235211953929
-0.026417024928260965
-0.01727931110972201
0.01871574452848079
-0.04755039539224537
0.046485454262783145
-0.03632252696078282
0.07317681324015905
-0.05148433530700385
0.10405492425899457
0.05800956996681403
-0.14152315510073116
-0.0036164927308974873
-0.004602687918074068
0.004527528833436058
0.04707435460147303
0.05217373668531934
0.046056171734185046
-0.05694890717592049
0.025182480860157258
-0.003964774894551499
-0.007096647331975424
0.13272103133198807
0.050345449048456364
0.06263220483654393
0.0022197376477305236
-0.03917352744195774
-0.043943946826959505
-0.014458595687156073
0.06191752450345966
-0.012752273350779234
-0.08253147710174272
0.08132347504490792
0.007227325735823693
-0.030997132773103616
-0.05186825005511478
-0.0051492304597521125
-0.07962805888046226
0.059183602873474496
0.04186900497516483
-0.0024621760878194908
-0.05161768081448109
-0.10932059494590872
-0.0824175626396763
-0.07915050517666546
-0.00196623619341678
-0.08226345094438552
0.004384861053117289
0.008287252767000555
-0.04290328938011959
0.07713383053828404
-2.0165251970334765e-05
-0.011171337519298209
0.05073050722912842
0.05340964244182405
-0.02349893328251424
-0.11848039884200877
0.04739622611514799
-0.06608419992507807
-0.041515221372350676
-0.023889289872202638
-0.028661625382827793
-0.034826152644543786
0.08614805808344594
-0.0831539838074113
0.049501393391104466
-0.03558474581787718
0.04086432013387061
0.0907731574895268
-0.08380356311069309
0.025905001738090128
0.006055151607924593
0.03244007686609543
0.06912926995611322
-0.04435995453124883
-0.07214579653344595
0.040443197516269055
-0.0616257362702091
0.04857395812615098
-0.00021792731752446704
0.016009139531609103
-0.006901157652809706
-0.06926354167065156
-0.014891519977408941
0.11480432830958101
-0.010468117037956994
0.0124332425683495
0.03848683740298743
-0.009688440280541
0.055743620280196166
-0.062073199020324966
-0.02184295336738254
0.002797909544429643
-0.02822286717213601
0.01985409053978844
-0.013575800061537538
0.03500394425171461
-0.03442991914177729
0.02481266962654459
0.051256373375497405
-0.04167305465993842
-0.0015436508022499797
-0.0009050342802456127
0.25127776887540004
0.5196489433137108
0.9982981254620552
0.5725031023623467
0.10682754871330491
-0.06792772140024377
0.03259563785312467
0.03749946159796984
0.08424810506407376
-0.06733562982637277
0.03731939330633457
-0.07552809713669889
-0.047630038702066196
-0.05656958355673978
0.10393766169099002
0.0033961617364883217
0.0734088388593295
0.07060065618696432
-0.06819260392963229
0.01649709623220596
0.03274901154998144
0.032304860004707676
-0.022232572067061585
0.01978052839860012
-0.009003426208306053
-0.0035898433456406594
0.018551881765526017
0.04309002355771713
-0.1073143797400123
-0.04797786801369075
0.02100105314062314
-0.030967939404997043
0.038793049486109656
0.04239253365406806
-0.005273861562826752
0.04222090415825068
0.0031836233982114937
-0.025755448874606485
-0.011912000161955622
0.02138316230792931
-0.0022447864173237224
0.025450145107261797
0.033350564321926256
-0.030061375049542483
-0.01987459734276241
0.018541614862746313
-0.026089493820385647
0.06803174987798671
-7.252331066156846e-05
-0.02224261659159984
-0.06352843737826397
0.13486469920937136
-0.02393892819389369
-0.12741657239902135
0.010906376663759466
0.06637390962328495
0.026098983259698023
0.005003496793794671
0.020260980027460466
0.04315683309959659
-0.026935495530694898
-0.041735043044735486
-0.033727897884044365
-0.0005883770689740649
-0.007020727464848065
0.0752878101943429
-0.030798793707019198
-0.06338194610106805
0.05188684851740948
-0.06755293848032567
-0.01415985524512793
0.020521696393449203
-0.05833900816508705
-0.040739111784808345
-0.03988386143877939
-0.13215561748634783
-0.0317815768822528
0.0608379550412393
0.04513054639854425
-0.005751907408934064
-0.09881582180010912
-0.015960670361558602
0.027650752536009883
0.012880028103171065
0.07619958937036375
-0.07012755008667892
0.03941148221622537
-0.06177162340603085
-0.045922505027197566
0.04927273375781738
0.12128573500978923
-0.06525675596670073
0.07301045727032801
-0.02138120487755768
0.0530385190661851
-0.06410796192188471
0.024196344433532413
0.042752799941795656
0.058324965669365104
0.006455335890523016
-0.03013544625377372
-0.005326629123924349
0.07439908464368779
0.058942961825054964
0.0037251210155969296
0.025667144081586393
0.058803338306298615
-0.0023257387616406927
-0.010124509033822678
0.04156699325270905
-0.03759357585904769
0.055582660778681584
-0.032885732493910316
0.07197834121000121
-0.02127597445846112
-0.03216788356265151
0.0192369282675682
-0.059820310825424244
0.04435600712097141
0.010624764943865236
-0.030273818216942135
-0.04868352719274382
-0.03394554974628886
0.053547809703802046
0.022979451240487142
0.02709610261084666
-0.08581353152407722
0.05153406829791433
-0.08095560764147033
0.042995045207021014
-0.082378485695975
0.0057963561368643765
0.06376806856918457
0.004340235015081393
0.08287839236748254
-0.0015235193914578983
0.06550327946556796
-0.01176925584251726
0.0028884239677199196
-0.06486705033092341
0.028418546637110548
-0.010236870415594403
0.0375072928177968
0.02700063820190778
0.04885139201312213
0.030044806002124842
0.03452622364825036
-0.044176374770575816
-0.03503397841250231
0.09281975778152549
0.08856482156567991
-0.06198077621369006
-0.024318470325149954
-0.03185704733032664
0.018391620297504675
-0.001340854351812854
0.001809524681710502
0.10934607504405523
0.026725877644429796
0.47286866025271196
0.9796429992058755
0.5519450041093242
0.08840893073949713
0.03607839510956846
-0.0016165622787434363
0.10640234415168032
-0.036087287503988576
-0.07947477612724596
0.043380158700538275
0.013466987286722196
-0.016124981265941522
-0.07249445457858719
-0.006640096053531302
0.03498765113062008
-0.012633209406043094
0.1098685413685209
0.07100231187917841
0.03337250308866852
-0.07183151582312577
0.06401626292733291
-0.04960590540334516
0.06888591041275065
0.03536441278115852
-0.029528060788439465
0.09281156132599719
-0.04643913859188587
-0.0010766948959821767
0.0036368941054077627
-0.03663257021800065
0.045289239494570636
0.006133623568642129
-0.035376438434244636
0.03155551368923698
-0.07401730748362811
0.02261595500164524
-0.039233330190033194
0.07661700749606755
0.01863194143847595
-0.07720058070978536
0.060311981180377706
0.10393103651778202
-0.0415550937257001
0.10756640098441883
0.003276311707922628
0.0657382849791374
-0.01758106459530952
-0.016699815226881427
0.015065424522368956
-0.00042147595536497456
-0.014701925371534422
-0.045001518443809896
0.015554618348912932
0.02156198213043301
0.020456092220329916
0.04726755964538013
0.03519306969665141
-0.0022425605508128803
-0.022539790938785203
-0.008127642714841989
0.059109552437106076
0.016937290560324066
-0.026419725133684815
-0.0839093936374672
-0.03126252071030194
0.08346028511385577
-0.017398618610532702
-0.08216365470506776
-0.06269284073005686
-0.0785669399014392
0.015234586178815741
-0.033924532527039475
0.09316759276997376
0.006122661622164339
0.05079649866718869
0.011829929741346336
0.07551899105684301
-0.04162612134697399
0.014851835482871088
0.05100131550735614
-0.09754777592323617
0.050753381973872816
-0.016886547588574795
0.012942936882379467
-0.06171105666357274
-0.04106138606485822
0.049189286219894705
0.014156894471894124
-0.004673203918676954
-0.0697895264063105
0.01224597764153115
0.03179519188139309
-0.038686593970277294
-0.018285423824807946
-0.03055379272657295
0.009632973221856148
-0.0046300980139553525
-0.01648618419794477
0.02520432545190124
-0.024449718601421616
0.013577550313938173
0.02558710921412513
0.000704330876901935
-0.06833725202126971
-0.029869348759243564
-0.019467590978760926
-0.013139398627359456
0.010466786452871933
-0.0563591146768103
-0.06993364459530337
0.03923093194399608
0.006748069884604077
0.04921257712725109
-0.032300945490233754
0.027301775538051132
0.03633859474198388
0.03507189893265294
0.024599027878624224
-0.05282512523375243
0.07328613203634915
0.07612226665395021
0.06349856109106333
0.015021432775102789
0.03157413167166986
-0.05852585974371092
-0.014069756102403972
-0.10282349692060554
0.05008156515057099
0.04583740217793585
-0.01794938111260997
-0.06415988281723785
-0.022168633680559352
0.009597780789695014
-0.043625996238044196
-0.043384308871798505
0.03322934355738397
0.05353479171769934
0.06315814169018576
0.05240412473880331
0.0724618124847786
-0.10544118412046032
-0.011762764658569165
-0.009306730838885327
-0.0067611864288324094
0.012726874875661468
0.054634284975636785
-0.054582158622202406
-0.020412214548917704
-0.01243847089701233
0.007954350228831775
-0.06596927599996899
0.04197230973257138
0.08643727643438928
0.4554672957783086
1.0381461502635596
0.49074038475280946
0.052357676929563855
0.1005647362639241
-0.02990487390907964
-0.03372728065787821
0.0815533013489473
0.01529842246930089
-0.03484566851251066
0.03957651871803179
-0.04115243621694896
-0.019869084054521372
0.018976180884111578
0.05194646016121105
-0.08552391457648115
0.03675605082565855
-0.03184016094008452
0.007812271824599603
-0.022707960546215045
0.034245413438870234
-0.026719560613406614
-0.006453752992534416
0.0012065329368620864
0.010333321931496213
0.004524406093696164
0.048542660133271145
-0.03559601840063872
-0.0535778747326413
-0.03080615007427398
0.04676738631319124
0.02683070975942242
0.06692865738306822
-0.05577040860410997
-0.09976335460988539
-0.05898675790607199
-0.08074422669785002
0.0025967482837894068
-0.0021086694273854244
0.08299228432959242
0.09815019448801132
-0.02560856236388645
0.06346058045069634
0.050826896257470645
0.027892937883636712
0.07778523435947882
-0.005693983690070167
-0.03668204691264137
0.03307665165852092
0.035711257424925764
-0.03110841146691345
-0.0226285807829617
-0.0636992336129133
-0.014874411252367985
-0.04109088758344595
0.015834256189652583
-0.022843367377053156
-0.11007539233034097
0.030717022845225796
0.06273448868767227
0.029527251917741693
0.0732236906924301
-0.07547286755785636
-0.045690133892318914
0.07897015967836267
0.005787542295598412
0.0420552869618292
-0.017266629432828765
-0.004803994780752657
0.0016926131425114344
-0.009346667623351467
-0.0248525085124732
-0.0830232541308609
-0.029277052785111304
-0.03095417111304921
0.06507621423540329
-0.09862771059912723
0.03888193990128572
-0.08339798360955904
0.014457812495314104
-0.1497552047819517
0.008577583542497878
-0.006126120682066724
-0.061572210420065825
0.009167023350573036
0.0478654114585266
0.012948003229904914
0.08182242109843932
-0.003119269960996122
0.006589405187426331
0.009971077926327537
-0.00981995273820156
0.09665625736043172
0.0005781210435117303
-0.02341218290574068
0.04918652413514167
0.04179737538981521
0.026534869722938212
0.01343327627332962
-0.0070929646215018355
-0.048314201237282306
-0.007979648268795634
-0.010784507041046543
0.0296629873318014
-0.016374268005448264
-0.05075540462494413
0.05399557642324711
0.04131553508084943
0.05219767655363932
0.046319093816403145
-0.01790363880460982
0.013136801156776465
0.037072862914012496
-0.05365162715800248
0.0038071693918439093
-0.03822610407081147
0.030109693803937933
0.05652274951639982
0.01237420268565852
-0.08940737077421974
0.06715114690562544
0.11186716927142076
0.08838835431740082
0.11952457886878494
-0.04452016793413813
0.08968811418091083
0.021102532026387188
-0.05772405249319053
-0.014348977653176102
-0.12108632358458254
-0.055995270222984284
0.0725678350065073
-0.0110498518844006
-0.03044559967341498
0.009108090744326088
0.013464815930844878
0.0041853371803115035
-0.09993428450554302
0.03305095743751919
0.0047005653392353805
0.04154522096007251
0.04891674557257419
0.008387022423396244
0.020443545932424527
-0.07063960637126677
-0.04283837861394192
0.03222537058159555
0.09391208050439272
-0.04379512786491245
-0.004572350117334637
-0.004044544075791367
-0.019761583192492424
0.0027394089517939948
-0.043312569297408225
0.03968545753237434
-0.012643544969889758
0.11229495457228528
-0.032605101819613895
-0.043074694844523004
0.0072552120684699455
0.04408707166895659
0.43612790086172515
0.9259609530851446
0.5257120940141503
0.11684944259178998
0.026075951216421422
0.03722187047492307
-0.009897906045200359
-0.01947803726569414
0.01845334673235983
-0.052468395005033086
-0.026512543532760113
-0.03821212781355862
-0.008634545931064094
-0.04416668439829688
-0.029012923430932588
0.02471057283062649
-0.009844183436581255
0.08106963537994799
0.07534474068507171
-0.01818094884130877
0.014387247396922277
0.07698930527447588
-0.0502244608688579
0.0221219718092954
0.02083075779779052
-0.0077158169006030786
-0.05743123295057084
0.017302063930965908
0.006446127524207039
0.008383462391671806
-0.015770212670250094
0.023272471841625467
0.05303562628318046
0.051756648243323766
0.05553631470114644
-0.05704432946836943
-0.07073513960320865
-0.0003150180767227716
0.06088095966716237
0.019504228107035892
0.017564326710169373
0.04799223202104506
-0.02324243876987273
0.03694765756231326
-0.07939882146393859
-0.00246343574508065
0.015456687709209308
0.007452588567108701
0.010572498918079796
0.03828477463369728
-0.0682275635792478
-0.051572841748123766
-0.0052708637769652384
-0.035102109308553085
-0.03591158789784525
-0.09718869315662125
-0.08762547053883818
-0.05813827503959249
0.03554036241752752
0.07415473204009218
0.0497542192835703
-0.0388878859924297
0.07994497691873736
0.08964863921464139
0.0034913542412714476
0.005668600561668665
0.07809402181316687
0.05237266691475839
-0.09065496621301189
-0.03441012637846436
-0.04086041285220393
-0.03131086917107614
0.06205384685685911
0.02321966925056003
0.04446607349059592
0.01701998056964387
0.08925321665744111
-0.044902766967150176
-0.012842989670908212
-0.08355269530913274
-0.00016745827523551675
-0.010418785065410966
0.01474252639920039
-0.02591254770488176
-0.027409014304085835
0.050922758796091365
0.018047465723737798
0.05576044048238807
-0.038240938034844574
-0.10646835980760186
0.0149569873904847
0.06410953027912031
0.040817865568434225
0.017500731449763187
0.023909126298280733
0.014233510623984001
-0.09286659765940028
-0.08681813088786156
-0.032855900295654016
0.01695420000331381
-0.05423726449038058
-0.027596212223396657
0.03174721682347521
-0.05409027484663686
0.04402716971952059
0.005078817163504379
0.029217191679351235
-0.03395703103192866
0.04991446149471793
-0.021035231926794788
0.1187462437943892
-0.01881682853690507
0.00952618794570133
0.014681823368023787
-0.01247628673653152
0.027166201570873336
-0.026785391846305285
0.047086232938531127
0.008522522759759602
-0.014893949996432402
0.007399793844717294
0.05449519277536036
-0.06397207892720458
-0.032022629381701695
-0.07802343532808848
0.0645829981464037
-0.1012618701950288
-0.03633683922825636
-0.010735813456920807
-0.004148476670545664
0.0015727015284868905
0.08666915413116943
0.06806725446660707
0.06233725967392162
0.013996070962733032
-0.007036476688211776
-0.019870462424685154
0.035321342003998765
-0.024364858360802568
-0.027357619937333884
0.04687396733605957
0.048902805447418776
0.10366416435218895
-0.0015388955253643182
-0.044781238425677355
-0.03305846966580218
-0.04864160233235982
-0.061056814546948585
0.008732184580260703
0.02566180474506783
-0.0020134745126249914
0.06989700721421292
-0.04288908837631197
0.07835066541240532
0.4871253808561456
0.9971153937240435
0.48391658387681497
0.11012668355989325
-0.047136812362023404
-0.06076909613733868
0.020706998151719724
0.051351356051774835
0.11160964676747179
-0.05610786754933367
-0.01032492632513375
-0.04451449078710005
-0.007957050005287871
0.05048096161142867
0.03519852464083869
-0.04836694204072886
0.04078462153132928
-0.04221590208021073
0.01778116779110443
-0.024882313178700113
0.005977305320107177
-0.048087706001832264
-0.00496272404103833
-0.05327968078894281
-0.08339528749704728
-0.0473675121518494
0.009436062900007909
-0.025375696797137783
0.05551840425478747
-0.008476068758526972
0.08035969707844334
-0.11267582290310536
-0.04054688912742282
0.03637722928196988
0.10376421882910716
0.00932460314650333
0.02483546789478481
0.03727360114296422
0.06299484853777719
0.008619987381672913
-0.031951541462722166
0.0363772877133632
-0.051321621717540934
-0.01029245573090358
0.03417170910995206
-0.00166298354860463
0.04712716555992384
0.023407438561292793
0.025132348940870027
-0.0405326858456438
-0.00045487163182841807
-0.07870605407560294
-0.0005834518809425285
-0.055141864890000426
0.14085001796714464
-0.09396908427097124
0.08302203308575498
0.011283877309873432
0.03575753549266635
-0.0717954097180896
-0.01675020755989451
0.027416289868908008
-0.02709537946030141
-0.028233841077478353
-0.04499571117835591
-0.0020794952060799324
-0.05288885220768663
0.01217639505712842
0.014683378959054416
0.021830719707919093
-0.07929949700575596
-0.043889393824997625
-0.06254590666618275
0.055847712014557606
0.046559242271275565
0.023569823471014516
0.08342102724423697
0.00033777972622761956
-0.059751232399832016
-0.07563871522662587
0.006343193207804436
-0.029041202309025876
0.010978722130876865
-0.0052329718285438
0.02111412294165942
0.05433401044848568
-0.009883173438584475
0.02574365995037949
0.04865143765429667
0.10384137990936182
-0.11246070671985196
-0.017243242714042074
0.019244536851817127
0.01696685102799291
0.01962539862424624
-0.025981729992801968
0.06510483478174592
-0.01210492242625312
-0.005678460377542389
-0.09055654168810157
-0.0826702621789162
0.04902008378821828
0.025857111824722813
-0.007734115387678604
-0.020419297578961916
0.021149452624982527
0.1192165276973432
-0.05404734922310426
0.07167115517986881
-0.023656045286973817
0.014069554758627862
0.0430977911629046
-0.054277722926072074
-0.11984700184162755
-0.057634228837359
0.002302993806957914
0.0028989262370112683
-0.00034485044920629814
0.03128327265251479
-0.001667357420069841
-0.03773291359633646
0.059503739261352474
0.010258019724145251
0.013551792005496882
-0.017923751766243556
0.04148887382162677
0.06393367434103218
0.04353851837200857
-0.09374040003772675
0.05095321568560063
0.025481237311696676
-0.044688082744945984
-0.006176901618470001
0.09374330300163067
0.08706674698280897
-0.042191097973386986
0.05992532650185709
-0.019217519155568425
0.026186108020093038
-0.010080766194622793
-0.013060188674013085
-0.039746759494389924
-0.032355456055415274
-0.0021121936699606456
0.0314408314168343
0.029620091392599624
-0.019804181846348346
-0.02896866537356915
0.01741499582917353
0.017257770954805567
0.021615090172502835
-0.07080034931327174
0.02662637827195167
0.05442553280910104
-0.034847348048844595
0.019794775140809306
0.01709902327806929
0.1031535917068634
0.0760213891776452
0.4318714806781232
1.0534141897834757
0.6103060994746317
0.1373827192206009
-0.0353685252441874
-0.053516931270242346
0.03578394391859785
-0.05358760072101009
-0.00964894769804215
0.033000125140877315
0.0811198027278063
-0.027059507213394108
0.058656345984305004
0.030429896372474164
-0.004350719506282452
-0.03711490039223259
-0.05469718647819804
0.08423608767481977
-0.14965308395030558
0.013716267823465026
-0.04312149444334358
-0.04688445864248539
0.030065862303416374
-0.004332534872742082
0.021395434821575486
0.05080917241163066
0.0876812352216105
-0.04320763212359769
-0.025019611422674056
-0.0702832728757394
0.06277624849144446
-0.05970452409444681
-0.02509841284897099
-0.02406323467608432
-0.0022955778163508507
0.03247041292704789
-0.08659577062936184
-0.029445296552343833
-0.00021093929038650783
0.026624768910603693
-0.03727541045583993
-0.05322581632128229
-0.0007900930185419686
0.10197224984392589
0.12610858833001748
-0.05220601195486168
-0.013163767465636989
-0.012329553391049554
-0.05441429202559474
0.03530848407078737
0.024608957015431712
0.004836018159061684
0.07474174516572199
-0.01099090638788412
0.06701463851743311
0.00833476018573148
0.0030715765286411095
0.03405676109609237
-0.022227200461177446
0.013099476610083177
-0.11087676133360772
0.005276305568095223
0.005616651611723108
-0.09034006375032631
0.023817303034865567
-0.027453419052176083
0.13446797537972782
-0.07327333691128467
-0.023907646835395955
0.012419339576903988
0.03020895938069365
-0.013872801231012083
0.059454012404251314
0.020218556843812872
0.03198111593066251
-0.01862534710684003
-0.04059652905404628
-0.023384788588771317
0.05578480022208659
0.020549824639154852
0.020881948798850872
-0.07184656706846802
0.005796369452017892
-0.01214679572091127
-0.06580658678202314
-0.043938947489602684
-0.04718801388490159
-0.0035965865829538815
0.002996862400017015
-0.0357983034892785
0.05264454107185445
-0.07090029740254451
0.06341261528642465
0.014638015083486867
0.009482147974961818
0.02461885215021759
-0.00861238302200614
0.0657753068323929
0.06493027277411635
0.01587308971704036
0.1006550709501986
0.0979681265955724
-0.009997677577260678
0.03656941940210608
-0.0696283404556138
0.040072366257164545
0.024227954630592866
-0.03520545854544487
0.06505838457395702
0.033760593236471285
-0.0064258834789659896
0.046452400227862206
0.09651235327642045
-0.0909590850437565
-0.024132156517056733
0.046015522374172925
0.08199092874827289
0.05910443780274845
0.018538777323012286
0.007990810223865328
-0.0954627634845262
-0.04903537482259501
-0.04002808760798471
-0.010977311449680331
-0.04998584779286724
0.05516065245375245
0.03198745586034551
0.0036805306184477075
0.020868926063971713
0.04517959158342281
0.08580295575470752
-0.03292595514996656
-0.05940296247203184
-0.05979362546179473
-0.06128220588811371
-0.017603189399685804
0.026305611127385737
-0.03826580945331656
-0.03381876693698575
-0.02813785617623667
0.04949562231108711
0.023009663494665513
0.028984681278484626
-0.024602960948260654
-0.008543419064481658
-0.033627437320507395
-0.007838041053557654
0.07153116868708156
0.05520286094615835
0.0016463042424146573
-0.015051811395076713
0.02047890682997802
0.011625513613163788
0.0677695579223504
0.5883652937410047
0.9739024648136276
0.5316818200932479
0.05235372067063512
0.008163564973068105
-0.015454319888890134
-0.09839593726220094
-0.054953930618173254
-0.010707454368790285
0.08415098726972609
-0.044175836512451966
0.04508734431868252
0.02925191538351964
-0.0982142170019215
0.030823386765174505
-0.03654195574599201
-0.028251466677473438
-0.028015257201746482
0.03415457246678233
0.0364441512231304
-0.031584123398658334
0.0754824611559681
0.03990575670185542
0.05036512542172045
-0.01619287218575403
-0.04391282543850957
0.007019158796186222
-0.0010039707182159117
-0.04421602356405064
0.06257221572860444
-0.09967717978030578
0.09112997442356756
0.06706852779190862
0.01692606681645229
-0.06047878932812766
0.010891609688243861
-0.009209498280135148
-0.029352236083401345
-0.06537808983318559
-0.021655974177455035
0.024563804690156017
-0.10382020130915413
-0.0007002013208158642
0.08537419354058834
0.015403574905034696
-0.051062048527749905
-0.02364637424178218
-0.05210029015721729
0.0652456297033632
0.10104817084628877
-0.022440731194317203
-0.10523966495539881
-0.032241416093534946
-0.015115671319430205
-0.04136027984595617
-0.11138842217010579
0.05156572172808987
-0.06867292357238097
0.020460162276779274
-0.009686518043240671
0.04127248114453939
-0.039306105924272805
0.0001898806647829888
-0.03511548923360928
0.05737362450481
-0.018873982628964888
0.038722483719626985
0.01038008373750699
0.012459877268708657
0.06660559227999394
0.05742205477434964
0.05480502724782114
-0.035872750181197274
-0.12509988082731655
-0.021288036254760733
-0.05656610398045386
0.07122215369528083
0.005407053817109935
0.007608523151305029
-0.014196489426721673
0.02073413999450932
0.07904661409833369
0.11708675579195815
0.14112585581777026
0.01970828909280825
-0.0025309639919708403
-0.06120614635863891
0.04493684346446578
-0.013835606067068226
-0.017355529237035143
-0.05292374820949278
0.004238333038517518
-0.011901442056217952
0.04427530945191831
-0.05751017812189257
0.018966776940656332
-0.011456334061012128
0.05171134616088721
0.030481894303969248
-0.039055828293307976
-0.013261925333125544
0.02570886301018059
-0.062053327217891724
0.0009802941159345708
0.02540694253909864
-0.060764188349811725
-0.035719759173084835
0.0527670603450954
0.009482046318665414
0.02956418800440514
0.027342495825401797
0.027620854721986384
-0.08015723868565891
-0.03615538135943143
-0.017468482896106582
0.028241575678147113
-0.08972742163023771
-0.01585416192306408
-0.04487725498636203
-0.02301384827355357
0.05486507900722716
-0.04091343031739092
0.039617180290707266
0.016519432562285757
-0.005276122733798403
0.08856521541996594
0.1235823146945136
0.06655165209032729
-0.04842153820280798
0.11620221865396099
-0.08422157772933571
0.06599294575004452
0.041383794667173825
-0.08483440843578949
-0.026369599311067332
0.05204790221166864
0.07999220064156971
0.015407039664510073
-0.01875426124489938
-0.08441602137761055
0.03675867499725615
-0.017443899830573276
-0.0642067927964257
0.0025343313623917086
0.044341838310943134
0.018236783226784497
0.024749015280024825
-0.049383984091632784
0.07261946643083625
-0.06893911693945741
-0.04265107685780095
0.08163346891080941
0.02990357068287256
0.05104418629706431
0.01554694873892975
0.09087232874740502
-0.04992921022194009
0.00684495662558427
0.09371807413114673
0.4676255965723376
0.9676387716279513
0.45682143237163314
0.18363539213895858
0.07729874048261626
-0.08553341528713596
0.02430884856893115
-0.014979352711949676
0.025171128631794572
0.03571327501837714
-0.02778221500744393
0.008341651292419669
-0.03626289703890605
0.005949371476464479
-0.08552478242798038
-0.11977866580396962
-0.01759528993775955
0.10673225482277625
0.08710042282214864
-0.01949201466421703
-0.03820819575852816
-0.03802206921281117
0.010510486015635603
0.02152366200314647
-0.08854202850409833
0.03245384584389282
0.019069235589203443
-0.029245630921968614
0.0582523570002254
0.08015342322179872
0.03789244036631301
0.058189560448137036
0.021577018582144204
-0.019160544674806677
0.02713803488531268
-0.004214573988823287
-0.08674153864583961
-0.010550797028680203
0.048484306622287705
0.07192515993894694
-0.0023156124392228936
0.11008169915727964
-0.009588720025136457
-0.11416779159191318
-0.038417906089343166
0.0103384973578576
-0.04974495623545219
-0.030694577180268502
0.06466017824615711
-0.03103859341668515
0.04722445512255977
-0.030881141824543462
0.07778852748774749
0.08525566488426997
-0.03983093804333428
0.02376691454133761
0.04948919013779748
0.024573144030596322
-0.00974374429675078
-0.11756561364215959
-0.03805790319441152
0.04797475427214305
0.01255703318141312
-0.036921575003682344
0.022634151390210067
0.029882230286123447
0.039717864711162135
0.020936029587102244
-0.02095806187522764
-0.088238689573145
0.10396986989368806
6.488479109310915e-05
0.022491175074223158
0.022096349982159397
0.027928274430534944
-0.011042392826934295
0.051733194043983556
-0.05454561110240483
0.07485054827672981
-0.07640975102810564
0.038916711476077274
-0.07627312333240405
-0.028173637880218233
0.01331091815655415
0.0019460195744252836
0.03368175995704372
-0.12318145577288174
-0.010165279597511971
-0.022853292083958032
-0.06902232529285365
-0.005812387714249233
-0.0008947649288769509
0.010781791724883482
-0.0499122627352503
-0.005943443892446369
0.050491496011724896
-0.001660882773909709
0.05545600080172648
-0.08317042603763451
-0.016055389241908843
0.004652837761133204
0.008260856063480126
-0.029499037069757872
-0.055441393940014544
0.09383070856261731
-0.043497595989537195
-0.04665989982076943
0.010564847529684509
-0.010310383660502884
-0.04170639074478234
-0.07319459470103128
-0.021138123187900135
-0.006323748060929596
0.007694807550671672
-0.06247597535262567
-0.004467500860568542
0.032078420482078825
-0.057507148149546175
0.07125140368632248
-0.075047391020712
0.03736299033499784
0.04087837052512955
-0.04476524727270877
0.044001989878595216
-0.051206765666810566
0.021273846295879972
-0.00024530298358223744
-0.03714332650952123
-0.05918170547523608
0.00711069025215914
-0.053137773576199636
-0.06253635733765378
0.037114967907277994
0.07121959137760461
-0.027816259791909395
-0.05489744805033439
0.043912778008409176
-0.013765737238757203
0.028623029041595638
-0.02175773861782749
-0.026921843713906487
-0.02821315660628959
-0.030029501263386445
0.06356271879024827
0.003081193727025375
0.08915472952494229
-0.11177064793538
0.012498046182917583
0.03576975992013653
-0.0107647026385698
-0.0032489451198118545
0.06901984541174251
-0.005447995818535914
-0.02398215099218253
0.07531350981210509
0.5470489346169377
1.0862796338527507
0.5453148537145539
0.16739021594238346
-0.06885382425535645
0.06864861356914213
0.056880793232404296
0.07453425713357242
0.014105608749147472
-0.046260900751742495
-0.018541316885947786
0.05152436363027174
-0.01467040451879306
-0.035553779284683375
0.0016890911595692022
-0.0061586532550735205
0.009754041954482796
0.09382688152360191
-0.037988523596378276
-0.02996097669347636
0.05903165412145021
-0.15929304027757035
0.05865144598603464
0.02965405702818315
-0.0199648076689202
-0.0764424859276632
0.04663265099155742
0.006569606126285015
0.06473482027027436
0.022196514986431895
-0.018789029645784668
0.014780477960870762
-0.03923228635605343
0.023578353099567677
0.014791674629448788
-0.005869075432112072
0.10575896714478986
0.02284902638970225
-0.01057644716619405
0.13842234187063868
-0.00036035411481809715
0.024592446698031643
-0.0017886587600134327
-0.07410273703046355
0.09345783153643972
-0.07599910454811161
-0.02700363742118705
-0.10098248569195128
0.004420475638628262
-0.03921349634840622
-0.05530734787556235
0.04369340862725493
0.08111403167261345
-0.058283506143250154
0.02177208429845595
-0.01696572675483049
0.06226781151432395
-0.025772655605815837
0.010916306515232878
-0.022421300649058618
-0.03869922384707011
-0.047633205790260924
-0.11150846518314739
-0.06582721148118466
0.01695641719903582
-0.0926824590577901
0.03104730217840278
0.031072351298815803
0.02151892248823
0.011218586437529305
0.013088590789887559
-0.013801229065935856
0.09525640221758178
0.09537234319296994
0.0140002961206433
-0.023325328744445383
0.021652723739011698
0.06037334278689062
-0.050645880589540254
0.04742423576082408
0.05739489849985474
-0.013253557845186632
0.06684900332560474
0.12798043432206826
-0.013419200750567899
-0.0026755920501764802
-0.04098512999256575
-0.05202621310163951
0.039098133601968246
-0.007822483649847993
0.0267752412865499
0.03712709515172494
0.007001057253980024
-0.031728861607029556
0.028175808753150174
-0.05399401886564101
0.03744503321698755
-0.023846697058145523
0.011419293872468976
0.001406583360615443
-0.03524204852469201
0.00827922772396783
0.03820852593835536
-0.0030910009355354547
-0.01735604259436042
0.03861082831863124
0.024434213826846695
0.05159974048991133
-0.001251888131877982
0.017850965200819593
-0.031509913751784004
5.0669655713475474e-06
-0.039215115554495444
0.005017163998779821
0.02839274264678079
0.008112130445312098
0.015339042220848864
0.0346369912989865
0.032762081276573644
-0.028481188330164303
-0.01180388165112789
-0.005053353075969861
-0.02008116178769205
0.007147877926019389
0.06188250094748507
-0.01595371192896577
-0.012223870106784794
0.01688369856252899
-0.0677633670652707
0.023241508602521582
0.016571625953300792
0.03439215036230645
0.02474964695186919
-0.06860735313785718
-0.06263846338368767
-0.0158355943573582
0.021007972868395505
0.06718122375750579
0.04310230399430411
0.023745485481188128
-0.0010858160978921448
-0.0829862584786935
-0.05932227569480217
0.027475248392570536
-0.015823139996041326
0.03347500146894557
0.06010366086678296
0.006251004787579105
-0.0006907990654727353
-0.035629593698653976
-0.004790865604203808
-0.020721678932682668
-0.016213614433045156
-0.03945856158526839
-0.14649813479682414
0.056524648629723166
-0.08551072232981206
-0.031045934452315616
0.06215811806114805
0.40192936042374994
0.9959250080260893
0.5303578060882512
0.09269550743636296
0.05795192939611565
-0.05866867025432382
-0.0022980279984222626
0.022503758512383436
-0.010411643918520284
-0.025878242690845845
0.11566181896280872
0.03917055705789502
0.023341084517254654
-0.04175832410166186
0.0012574286188886876
0.07459658187786604
0.03410278840501354
-0.011806344266162831
0.030230566898609968
0.026969219870276645
-0.07278062545773743
-0.0413411833005404
0.02741990471203505
-0.033745818014076466
0.11148175240689032
0.026957526050825915
-0.03836794614309191
-0.10762287313700042
-0.05481352079843657
-0.004674296498797682
0.027914125971713916
0.06478356290692677
-0.0014232287948643012
-0.048011484457005586
0.022361949751309312
-0.03120610034861533
-0.062364633620626934
-0.05938438675619742
0.02785242923101422
-0.07069087902456783
-0.028891943373393042
-0.006100960033309474
-0.09641604444267725
-0.02997249902140381
0.030403317071579252
-0.02204202537905515
0.03848137007269132
0.02136218807241143
0.09365276077597469
-0.02528012567406379
0.009306327271676608
0.01650633050637827
-0.01288686897613984
0.015320770497507213
0.11253853460922314
0.018893188608802673
0.013280632742065968
-0.17793787357746288
0.05714178168563751
0.08266013398172588
-0.0002952718306744181
-0.013348456874940323
-0.013429635713383509
0.078258382820515
0.046954976890049495
-0.05686156640358056
-0.03398227199946271
0.003253086901062563
-0.05089895144520859
-0.05200555170323125
-0.04470868737420592
-0.018403425430846887
-0.16286426643539112
-0.06107732659403986
-0.06187606007341656
0.009555598118056272
-0.029630335328240016
0.018658202695297485
0.07636387487155104
-0.026387536765909627
0.0003754230655539485
-0.021089443955175285
-0.04496413997219974
-0.0034436271766772938
0.06498032590765503
0.08046074608375565
-0.06340782352985662
-0.09166989705212164
-0.018840999756751922
-0.031343437859346394
-0.09215910441557822
-0.062254907395076414
-0.032885075706307755
0.0338465341287881
0.02558582037780199
0.0751162743186586
0.04448829234314233
0.017292658997402118
-0.01242927547075134
-0.0015776555110435305
-0.018836345337960195
-0.012322991896256432
-0.015918979465453193
-0.00623629168010844
0.015119415629381669
0.011999471978658303
-0.05418753876822774
0.03818652092702366
0.002794020704894897
0.01992527685698875
-0.06925646165520837
0.055236805426568905
0.09362059130832516
-0.07963884174026158
0.028879457588369385
0.018552155902524937
-0.029154821269138292
-0.011580510138601174
-0.036593092041772
0.02831149797469795
0.00848527687349202
-0.054674209934392475
0.00960332113310278
-0.08894102796505265
-0.062357486615656536
-0.015102394283202942
0.03261050100731923
0.061710106040116175
0.005262384947253164
0.020544440017066838
-0.020149051310342194
-0.04615823383266564
-0.017319981297324146
-0.023650654571444996
0.002759722275478141
0.0343311118803737
0.08897522787990156
0.024558227840615707
-0.022867197598668672
-0.0015636364553386559
0.028169043713604708
-0.032147837795765834
0.0587665147973582
0.024640026523130586
-0.043016659721659044
-0.05817613889168859
0.055989578993692606
-0.020146899442914756
0.016078689483812424
0.09462533778158448
-0.020185012023589986
0.026448733743633563
0.09403048239193294
-0.001356348721563331
0.1670768720579984
0.5522958490030905
1.035227344449256
0.5441068277192687
0.14164731253758817
-0.03240819898125445
-0.05711354937912153
-0.07379263286195345
0.12289993560908617
0.05859134110083161
0.0329059073891605
0.06193963037626376
-0.03364406122736207
0.04505634243989611
0.07106140006730507
0.038157401776825424
0.05458546476313193
-0.013695257650977427
-0.04178328396439561
0.02466672421726461
0.05072083461842423
-0.11443549607734178
-0.025500952212826628
0.004780197317112542
-0.030366142134628273
-0.12453859796458884
0.0439701995429474
-0.03316856634735396
0.007222686558881671
-0.06093027455358642
0.030231011147773774
-0.0751574175974471
0.06552092656929584
-0.003783016526631072
-0.04724824459368047
0.007583772903153482
-0.0621062317259962
0.06367606884200752
0.041632121727713654
-0.01961898484370174
0.017097747724839008
-0.00697470811543002
-0.02870081132061147
0.024738410210948806
-0.04634052618210291
0.045831514156387226
0.07911063805202884
0.02677665305307041
-0.012490739948600917
0.007393155295869043
-0.04378923214787149
-0.037287859135607136
0.06803576733445475
0.04807168453095954
-0.007377815524070366
0.0006521314936152611
-0.013527652156848043
0.08752943746571396
0.00016819891280882835
0.041922208148660274
0.05718397714300499
-0.09581353965371854
0.055311432334878924
-0.052676887943842225
0.023156771807586435
-0.04080719650025606
-0.029854919870044218
-0.026232986654060916
0.030668107266255264
-0.09809620020640174
0.03825122981407897
-0.04768570152950948
0.06029638000765434
0.053720276820251225
-0.052815941303234665
0.041369289635316275
-0.02896993768259275
-0.08168093092810398
-0.030546289903095214
-0.0036977897187497966
-0.01700935777565174
-0.1102742025913207
-0.09521377442928718
0.005051857471553489
0.028672870237965227
0.010400725935904803
0.04292775584912927
-0.014029392228133805
-0.009127739034459592
-0.10540743562249422
0.029951997593443438
0.08292452508723629
0.018385139517776473
-0.009999741347149572
-0.0067480966299791195
0.012285628256646447
-0.05494736310914561
0.025029604645109477
-0.06711294199822213
-0.03319649182799962
-0.0022304824610734175
-0.05566117277482231
-0.014111272924219374
0.0356342410580788
0.012426277083780012
0.10426677360762403
-0.012346196583275439
-0.013333399446793926
-0.013118326231279169
-0.05960445048087627
-0.043094872006524586
-0.008561417897193025
0.07755359074205789
-0.03293589222936642
0.07349157980017261
0.04587982581293182
-0.010916083550240055
-0.06397178858940035
0.02139505082177003
0.07447112080719377
-0.029873261453118794
0.040951843575326025
0.02744779934450863
-0.036842051789215804
0.049625941337511595
-0.08676344092596944
0.023068513109566497
0.020546110196461756
0.02202248402217158
0.08698885222447358
-0.03656110801113642
-0.027365485052964517
0.003247004622206424
-0.03842658162456007
0.031621170364921174
0.04244352198353681
0.06995906868278959
0.051839248905971684
-0.09093629698560532
0.05495494272568638
0.027922627397130348
-0.015680544350901077
0.0141223310708757
-0.02641681792093011
0.036378238968625465
-0.019076550614163933
-0.09619428815968378
-0.060937751340704185
-0.049172478094350186
0.034266062940103224
-0.05662889829190643
0.053937505148733106
0.0946037126752648
-0.005046952215495664
0.01787037309708275
0.03155945722810654
-0.10456924454037647
0.006470537265540222
0.09094891893585323
-0.03238614239100273
-0.047093551646378545
0.03772334389627574
0.08919477698800105
0.48446510054473124
1.0404371159693317
0.4831902344809497
-0.013488655440399636
-0.031096097414333092
0.017924117808299857
-0.11355978281834103
0.030246455637963722
0.059935879198497494
0.03831590037798609
-0.0837197111058669
0.04867258103928662
0.09926491221024217
-0.02033714449616646
0.038624024662867545
-0.0721412230372928
-0.009364051113708449
-0.010109906040068934
0.065914173177604
0.026234558768477023
0.019022307836212195
0.04819096948837767
0.025031524622911014
0.04505823013209204
0.0392473997846495
-0.007907865075992258
-0.06656674170197123
-0.05308672535790254
0.021816174371413973
0.03708835592682004
-0.012376157038724456
-0.07704691593170454
-0.008433039088197572
-0.03574321356451611
-0.005383169629285958
-0.05831768398339804
0.0232603574851956
-0.01160994932341339
-0.01651793876972062
0.02511898575379139
0.05717631415811726
0.039812468676755475
0.029693609125844202
0.11198802526100174
0.0690796809068114
0.05883765399807794
0.01378183677362503
0.009105755074582948
0.06203985726119914
-0.075740357846482
-0.08983840749789629
-0.0015824962034453186
0.16253674646447702
-0.019086811914502844
0.07361247604409343
0.021073825271446633
0.014950578697052457
0.034008040362834564
-0.03100126634517618
-0.09041374360845907
0.05922269220210526
0.08658891897242332
-0.02823538474221729
-0.06484417506832368
0.03862945828450489
-0.03703369377467132
-0.0783492552206163
0.044983994124044455
-0.04588787413044501
-0.07154286963047617
-0.023819175171586972
-0.06590116618074998
-0.030742564209855994
-0.05331867222559925
0.026506163161628068
-0.0030214722721414143
-0.029444792885371995
0.038566591771527686
0.08913547549040521
0.01882827416258778
0.0275585826066712
-0.08532283620902288
-0.025183563659099545
-0.01665084442475376
0.0934082769372056
-0.0027995273041537703
0.045190769874804394
0.0006034885996827183
0.05729960164931598
0.01797879780319989
0.04367038036527018
-0.11762854625246587
0.013652451711405018
0.09028967299743736
0.046742886677444986
0.12073272478104323
0.012240944903867818
-0.016428231170422063
-0.0806325184838313
0.049041700763292916
0.023339644984153043
0.013990901568092943
0.019200382345169843
0.003159827396872015
0.08677323432833817
-0.02424980786691666
0.052090963601740925
0.07667404657620036
-0.05855658091735938
-0.008030105844207788
-0.031014706314274228
0.13006973229216126
0.04922040696762835
0.006798845724496751
-0.0053552732367608755
0.0356671706464279
0.07937608665058948
0.026668592000114923
0.023344940329487533
-0.006886131890785945
0.05923378187511383
0.02182315521226072
0.020666779487819753
0.013596911213591079
-0.018694028878065913
-0.036340533241228955
0.021732934012189523
0.010489691378196025
0.004398962476656173
0.04547147323408125
-0.01775772557089204
-0.052014297031822615
0.03894848376475316
0.043460784900128675
-0.007687231561979298
0.011200392363059067
-0.019978708774191764
0.07586170164153248
0.14134994873653664
0.056065535756297524
0.018579652368707133
-0.062851730561641
0.060165571689818176
-0.043678178715727406
-0.042618014031196264
0.01047752703227495
0.02067888439600372
0.05433391805879382
-0.035950960160071176
0.006889838865233958
0.1347857448606757
0.011847208699795064
0.07618435206366704
0.10820318556182826
0.4635447196839595
1.03975928611995
0.5044471901707505
0.13732541531989687
-0.09451898161088673
-0.015249282438539595
-0.05707768219077054
-0.033843003254593024
-0.003302020892396137
0.048463123457616275
-0.023585934410721085
0.07776608727635098
0.0067971944238816575
0.023003891467817623
0.0541841357486286
0.020268093406016333
0.10646303210469586
0.006586437208277245
0.1320739713055742
-0.01275502387696548
0.0709870783110628
-0.006920382706313225
0.01424475341325201
-0.019638729844447228
-0.035040987289500954
-0.0037727112664719953
0.015942827346536875
-0.010194798485149679
0.040416287586006086
0.05259025341509526
0.010179222394595037
-0.006463897920396421
-0.02083370807689129
-0.006739669673850178
-0.05549833571261418
-0.054409446339082304
-0.036882922844942385
0.057355768566876235
-0.03926714684746838
0.0006802562938700094
0.09031665635185257
-0.0023618674390717713
0.00816598884010539
-0.07193534236053578
-0.051299002532691054
0.05357519326977936
-0.011201365436802377
-7.201603755313014e-05
-0.02298713515738347
0.002717622391115053
-0.0003864103619849159
0.015852635035184737
-0.01554817192713291
0.013779304085130402
0.0338166583566019
-0.06360966115821236
-0.006364706335914809
0.144040457797559
-0.07381113182796628
-0.10161954397963827
0.05561230948675009
-0.03193350676038378
-0.03525784244246721
0.1129535051465414
-0.014070044725700132
0.06341022443370097
-0.06784886935785288
-0.05022463544939851
-0.06245752730007005
0.03595182656161461
-0.03634227759992928
-0.005191043211599321
0.0115477156801233
0.06058927260715047
-0.06040623860069423
-0.040161165385659815
0.0064891725171806695
-0.05999585069204372
0.04445992947731902
0.05233122916499131
0.06777137863093072
-0.03987082829409885
0.09783214205736838
-0.0984866056686347
0.03665719670371301
0.04515175648127812
0.04648269527911367
-0.06199531407735074
0.036894468680553565
0.07127660407974439
0.06326008100715054
-0.005866948140609753
-0.04228522346572507
-0.005335210035820041
0.017780765400721186
-0.0029111443532943934
-0.047953196157933906
0.07122517135313995
-0.016137578593769786
-0.013457634252684765
0.007969725352148113
-0.016651951591272324
0.0007298534957755513
-0.009688490505437804
-0.037145969478075594
0.037898002537949796
0.01206459771146809
-0.02333917970761231
0.05205210226061246
0.0947163547098192
-0.026089545693185768
-0.04396185175368686
-0.036693106299561934
0.06249270774827906
-0.06509336605248982
-0.0015937592630646967
0.06657346139009657
0.10360083126098206
-0.01950914978083176
-0.015949427466705333
-0.05873860918648186
0.02548446835729102
-0.041142497643142414
0.030061451864938457
-0.05087674060104504
-0.040130082874383
-0.03702229014438918
0.023401323914874633
0.06215454035760966
0.01873588912708111
-0.0745192861630613
-0.10064005306838802
0.07647929723348781
0.029411687524751918
-0.03163680850619676
0.024568897016766813
0.08802318440413748
-0.0037696888923163794
-0.011580596573292601
0.037947121608289905
0.011989793648573591
0.004994831375986466
-0.005065735356367405
0.049774656356665906
0.007661882766630077
-0.03626817473943249
-0.06088825324508809
0.0832367908820646
-0.03179083615708584
0.0008663613061062189
0.012200438907369056
-0.010708162920978925
-0.06182040625564788
0.027879051646514066
0.02140263059694407
-0.0030702302321727656
0.06702509924558434
-0.05279873121850362
0.028104025682550077
0.4750329356061044
0.9816335140944659
0.5463116927380592
0.056891602413346946
0.05422441665861684
-0.08098416030989339
-0.002486722262715625
-0.03984040335511655
-0.0055855667969732315
-0.023218941825703648
0.040514769314566
0.03428885677431133
-0.05795420379397829
-0.00655493414993459
-0.04555737588944713
0.05607955380213005
-0.032912839502182205
-0.01879608247142061
-0.025703511413461107
0.049651815015804054
0.08252765760822833
0.021876883348601193
0.1426753178185529
0.053915215177856746
0.020485850604526554
-0.010224758442620996
-0.0351594842914073
-0.012411503715239018
-0.02229855675837001
0.006965407596347019
0.011867591105888224
-0.07715454278296845
0.05840584388473721
-0.064679042255613
-0.007584707058745483
-0.012303668763836206
-0.03830966589415154
0.008113920349601204
-0.07032058001270595
-0.01807336229457292
0.06447340466233398
-0.021584763387212755
0.0050439920546777
0.01889748572370342
-0.08923629139391011
0.007249936449839853
0.03139059968594322
-0.08927860267883127
-0.0438989332192361
-0.020993852948994415
0.0011547049540133177
0.01590403489122542
0.02089714538792691
-0.011352511966037369
0.04441577634315322
-0.099108163627161
0.04668360690405668
-0.015903483305888654
-0.02228791512017716
-0.05675447846100286
-0.0037225712988906744
0.01920665940703048
0.011423913365478868
0.009151494028862851
0.05416195740487128
-0.06902233955953603
0.043344884276954626
0.005248827863510805
0.05699509040558213
-0.021902843040241173
-0.03821621262908075
-0.07820823402658171
-0.10653709916653745
0.019878019668099742
0.011884544491940485
0.005137763128419102
-0.07166042453155269
-0.010281808942054342
0.04786849284967804
-0.03937225038197574
0.03034880453278846
0.02485290819009639
0.028235916632758446
0.005394177066850076
0.0119418880204489
-0.01859720328886847
0.03812230723013493
-0.059719755351949524
0.058329480514090086
-0.012044313189404103
0.048256840446707194
0.04304310231080712
-0.04415867153408203
-0.056008795348144326
-0.055893298228507415
-0.0032940337223961226
-0.015570758302244934
0.015615895205624767
-0.04714914326172015
-0.01293251585754287
0.026588748059843726
-0.06137915992063395
-0.07388610637320948
0.07293086539253556
0.046336613148447586
-0.0422951731685616
0.05743985124841788
-0.0252405436244414
-0.1264604234897244
0.0950657639176414
-0.028688746501498302
0.05649361827477183
-0.06550008679098149
0.037606121705420346
0.04481648173029937
-0.03879216364608898
-0.03565387105422118
0.025442634694821626
-0.07136446491746948
-0.021442968776988317
0.0716936796612279
0.0643894877536666
0.03891969142053699
0.024622554021267843
0.009768892340518302
0.0038052754826852692
-0.0017819837178381797
0.016072258239067102
0.014995795172630591
0.015116537419810278
0.03354475015176909
-0.03871806180610618
-0.03482499883093559
0.018026089691343672
-0.015230118603989654
0.02275802736808871
-0.010845903154889229
-0.12047104424101199
0.019542521011804405
0.019650838899997997
0.039953911321187856
0.011448399221353647
-0.02674343805974886
-0.04754532046810246
0.0533247710553796
0.020484481236767386
0.013530850441241813
0.06255374032495371
0.017872894387030224
0.0016536314441002319
0.03368957361210182
-0.05118803128360186
-0.028826493241123748
-0.045033809797630796
-0.0033406949526182117
0.09889378977805985
-0.03560414162948836
0.20686270909043536
0.5385738231355467
0.9849658949346024
0.46783676129541274
0.06857147345082698
0.03792173198066562
-0.01626456173862414
-0.0054017318822891505
-0.020282479272494745
-0.030811785828575536
0.015202300226146085
-0.039418171704949864
-0.0527648597481673
-0.09121870471084376
-0.08739425913410531
-0.059201019049700834
0.0015338944383230782
-0.07092271504016283
0.05094164609566987
-0.054345183938013714
-0.09337403701293572
-0.0060935181698980635
-0.04536454155584823
0.03466815076012358
-0.09294883695513739
-0.01982366592651815
-0.08000711776012848
0.004463139412660394
-0.039194963665886935
-0.029697035980279674
0.05695658976486256
-0.058175438998330456
0.06258308926163748
-0.03191260834292981
0.01464990247116297
0.041798580388186624
-0.05554013103058967
0.028001652666015633
0.040675507900919346
0.0014819426940813048
-0.004215362328715894
0.02370081832842446
-0.03059638155731266
-0.06827989287253473
0.0247586268791408
0.0935170899972957
0.02077237460191509
0.02466809748349872
0.016735132118263343
-0.003784466408365597
0.016455486564523614
0.03563895632001649
-0.011195768915196904
0.011171033320980071
0.03809097140236881
0.02495734460210544
-0.02254624991617936
0.010660037781145906
-0.023624764875911874
-0.04390925110044794
-0.012584592461893954
0.037023679032256694
0.025250990658362144
-0.052546970156428674
0.06298281118937236
0.016321103262934525
0.032292079771920994
-0.014513618633233652
-0.03225480095847784
0.077090725995479
-0.03591427578595838
-0.05125666586915704
0.046696866068318355
-0.1144464828517811
0.03648348423521731
0.04449452498867987
0.04316001621081067
-0.03928366492498432
-0.03847372292282978
-0.010770958200219357
0.023070692802977473
-0.07876721309047613
0.08427894377786128
-0.06261231676166312
0.0728967749519852
-0.03947017336564211
0.045967827977819835
-0.005933689631161692
0.011229995695979905
-0.01617494832125934
-0.0032744260529738688
-0.010304155012042756
0.0395462433293885
0.07761658838350982
0.03325376556779222
0.009212837620652814
-0.0005527802760406646
0.06783388657435262
-0.03803201640701853
6.805872729886578e-05
-0.0670723443308101
0.052969695893847035
-0.006699830842582798
0.04348523009865378
-0.05534672952596505
-0.048154579610899514
-0.08462127321068863
0.01576750051765061
0.0630093272153167
0.019512881150306607
0.01780773282644862
-0.0016261009220247188
0.04377310690752964
0.08993009136305903
0.04403037828877446
0.003312685379941248
0.09815744637583373
-0.0454946398968246
0.018730644193472756
0.12908479424956762
-0.023449877441036576
0.03871458182070734
-0.0017005839561685335
0.0671510376946996
-0.006423541410389687
0.00030375268245327376
0.07101694479411168
0.06988210039278624
-0.08936007543652469
-0.1015476898803469
0.0006502117010754017
-0.039796138023618956
-0.03721644482398447
0.04664027230364456
0.03534322806086603
0.09482739888240647
-0.10708575635715259
0.05887622087865693
0.06848747823972288
-0.014649899323662632
-0.058296634173076844
-0.019475168774834038
0.05828967674624296
-0.0591733212686652
0.05288902884888639
-0.004888028386546261
0.005474725049833994
-0.012813123481274703
0.023303300301588267
0.0349492079624189
0.017137356203165782
-0.035042434690026276
0.016717045106915053
0.08452545205279514
0.6021063565992425
1.1145870724185167
0.5081546447456367
-0.011534399542294432
-0.020636380940471415
-0.05018629398237432
-0.04240719313702143
-0.01935437449063804
0.03175752981212463
0.061802209755055806
0.027460630849816366
0.04188570010973588
-0.07452082637227991
0.03354822881315133
0.033800933831964086
0.038935135818649845
-0.025201711408962033
0.06693566728291808
0.05616518936099507
0.033380249477468565
-0.07090998835388598
-0.029611958638093433
0.10301506369816243
-0.06396347223290982
-0.047510511278440914
-0.00881157009386619
0.02792956256259213
-0.0027603082238534223
-0.04026559191078516
0.007743337212172026
0.0311517223148391
0.08997029408213139
0.05126449647288635
0.021481363718653473
0.0021665862978066503
0.011993601644203721
0.06899256847461045
0.03319387062762843
0.021975162469297104
-0.07743517586298061
-0.0236744530234244
0.031227770208949582
0.04211270405182268
-0.13147632412238014
-0.08367456668833956
-0.02233277975678545
0.0033210677698725342
-0.10681254537591832
0.006993111953999313
0.00954847204407937
0.049964036705281864
0.05059216686880679
0.0018233463622416128
-0.043043297370734375
0.03045593199560369
-0.008265130392955879
-0.015429797425980375
-0.04079727838785141
-0.036268835495057876
0.006522386087411168
0.029158262718901224
0.07384305518491063
-0.012710172129605266
-0.003340309984504794
-0.03195558866289796
-0.06675127433617876
0.027496478551223655
0.0011647912047148858
-0.12898334235075107
-0.01812079677946275
-0.06545106851606917
-0.058566010079336296
-0.010470892881455751
-0.01920326146785182
-0.04404675548388283
-0.010002739498907773
-0.0617757215964474
0.03917483850072966
0.04829019331753653
0.010685901343543722
-0.05992495330293484
0.08785072046721552
0.043047865205519766
0.021292783449370967
-0.01351846307069194
0.0037188193808275396
-0.11491519199436136
-0.020845964031468604
0.013164982588834157
-0.03208554021605643
-0.00681361218001069
-0.03806580042573907
-0.06916492487025368
-0.02218401244183643
0.03702969970318365
0.09276016825664192
0.053892487740210694
0.11040009644362701
-0.10346188095846716
0.08429269855031708
-0.08356908951933288
-0.010331421933358842
-0.04750777772908821
0.02248822461417804
0.0074016633808383836
-0.013127005746335721
0.053805637002661034
0.04328812188505132
0.00543871711715619
0.0758633559542594
-0.015596240931893754
0.07154104371942023
-0.06080698096652133
0.024162746311212718
-0.01576108352285365
0.01387668275049919
0.07454637448314443
0.013169380794117719
0.023998144288315273
-0.02239023734916296
0.05410580486932104
0.01993158346941162
0.10078266241717666
-0.01229807274745919
0.0758504140973833
-0.10018412863969575
-0.008462336783103413
0.008700234514626341
-0.05111859194076162
-0.009408097852653244
0.07356198573696056
0.06175460427573635
0.007151194896190042
-0.022601478570316635
0.15446256103398798
-0.03276776826965245
0.0019313319736868105
-0.03969455117019448
-0.049634642865708664
-0.07443623999957237
0.046678338978097235
-0.06669245892166124
0.06004231687542471
-0.0427765667329541
-0.0260604912694967
0.03487107381064011
0.06400774452519938
0.004701771822397654
0.026034219107095847
-0.005595947996909972
0.003940395567905294
-0.04062416902061597
0.08220116937617923
0.004247317381403843
-0.03403980414011133
0.04175025330886464
0.03123047912735319
0.06106117103050584
-0.023040252612263085
-0.0330679162008945
0.2179944915068601
0.5434822829861525
1.0230697661324468
0.5262631462805373
0.16967353894754322
0.09975851563609868
0.09822976898934382
-0.048992081915619934
0.017654565250849973
-0.054457992751380774
0.02288932734054968
-0.015247677821663898
-0.06298557536228606
-0.048041052364146485
0.06016164375272353
0.13014518923416524
0.005639386906794351
-0.03992279284374646
0.006164994880853333
-0.06043657275019122
0.05818350049254838
-0.00484798376758639
0.06636519735048785
-0.035137704983259806
0.036727255157863875
-0.02455616064269116
-0.019783359630295004
0.03955686354712971
-0.005485775845106672
-0.004613850323558417
-0.028986624494707087
0.03425741382572287
0.04751480019256759
-0.039109223007579304
0.02198555755140763
0.012317154229472145
0.034277678733878415
-0.04915913127803723
0.036562692375850324
0.061953039713780605
-0.04512425972682689
-0.03347722345496217
-0.05562850217630386
-0.017480981718994298
0.019484983398226456
-0.017953631191568887
-0.042613556415962664
-0.028890864327834855
0.0824539236110228
0.008336016379608114
0.02275045031261293
0.040555978848324216
-0.017613569871995177
-0.04188425159817215
-0.022807726919939555
-0.045701204773289615
-0.0001572080578417357
-0.06576409467245325
0.007679132668992089
0.012422495957033848
-0.0038223403333765543
0.026388094204997464
0.001780020995712945
-0.03954590800637039
-0.07794890485783752
0.026181780399476606
-0.08624125704944574
-0.013894772377609816
0.024550477791725006
-0.08812524454724066
-0.012439037290270339
-0.01862730660413562
0.08601675667751628
-0.043253199935126926
0.019919728535741206
-0.10276342172998972
-0.024305447828462154
-0.05538698206018097
-0.020844688614847114
0.011054646783452686
0.04722477871050752
0.012164952984791314
0.02591731000589599
-0.10024142935609788
-0.007432984927885328
0.08160229744323941
0.023974758488715206
-0.04047648032472545
-0.013396657799375752
0.002646868877176158
0.010339118264856575
0.023901963109700688
0.052543905698618824
-0.06673870420906967
0.08488474000480752
-0.03621307729365297
-0.019105848538583894
0.11339727728987897
0.06654671230556944
0.021075972972661686
-0.01531892656370134
-0.04621763024469206
-0.046762977359809325
0.013314694039470932
0.012010281822374015
-0.057825147237727983
0.025077711992332094
0.0327707364648211
-0.019425308946166328
0.050976296281952486
-0.05355596346141
0.09671368695492216
0.0627250388063472
-0.05389357856004506
0.1333631714860783
-0.09682786764160378
-0.027069501930855933
-0.03141780026487429
-0.023408529774869694
-0.06859615386550877
-0.022142701201946672
-0.07992520009939481
0.06838354057421488
0.06809856741505513
0.016698851467318875
0.13586675208566934
0.03792961361039236
0.07151827157033967
0.05951100565810116
-0.052700794454936264
-0.03128032704088673
0.005195900504334218
-0.046957432815153945
-0.006117211951397663
-0.015612387677836662
0.0003175478151665514
0.017272697569338802
-0.009200434906804595
-0.014087297007960556
0.03865638281141762
0.004227882190596359
-0.09479272164565831
-0.00417723137095954
0.00660475845620806
0.007134005350068969
0.0958906097719216
-0.012245116691436082
-0.05951326124278247
-0.008184973438590771
0.03212933765802483
-0.0251750617011356
0.07071380854918476
0.12391250174388584
0.4558422482284859
0.9033020073201771
0.44696876791617435
0.08329612162118133
0.13762155209824894
0.036458656730795284
-0.03678351806921281
0.024773835786056783
0.05172545943548751
-0.06772129305607766
-0.050801188322727245
-0.06029996439613801
0.00876362276799675
-0.017230116865563347
0.04724004355460515
0.008466205971296594
-0.05477886303970569
0.05426161693006633
-0.0626097079573254
-0.0044696060283472335
0.029021271200516886
-0.03345272371406683
0.04464492505208271
0.0018782060264189568
0.006967365313788768
-0.02165957535947532
0.0015139517108325711
-0.05202536940615177
0.10035909654976925
0.06756027355034745
0.01848385776274794
0.03744426142152805
-0.041009524345369454
0.0010630095949274306
-0.03729208937378273
-0.042164129212028084
-0.02030454453344321
-0.06915476405992493
0.08819058809689494
0.029702668952007516
0.026986642811339903
0.006224976419580802
0.001915492550357413
0.052225147860155974
0.07412936596441794
-0.036521656880344054
0.021135222458423152
-0.04622626286658442
0.013769972436868045
0.01688330202465139
-0.07764477891553537
-0.02490191635167216
0.012993684348987745
0.014490792295738365
-0.027258724122314743
0.02783082610658355
0.14628016138788985
-0.02075088968108263
0.05910256753116166
0.08604640217752142
0.004072644682312508
-0.04912523666168473
-0.0031002972831921985
0.07952429602396027
0.14914932318387417
0.010437490124818113
-0.017599198891459722
0.07038208783118712
0.05185522905804374
0.0032617411147798795
0.06344442890905441
0.05436479608846308
0.05469802343637074
-0.09590675320060706
-0.03475637312046557
-0.017201275126471564
0.06067163526212935
-0.035307437431386875
0.04567998622993677
-0.01740494981587969
-0.0757710871310785
-0.12503876305426162
-0.014371441252075047
0.021657773620360476
0.08231839064525648
0.025277068160920704
0.021176239193613704
-0.03077347181203055
0.08031071016129805
-0.01846162800392658
-0.04702258183441872
0.04411234493495852
-0.0002895738059329182
0.006129152438941404
-0.02481884262742432
-0.04855871371414272
-0.000237537836619027
-0.010629545338428274
0.05638009843790636
0.010020384795219
-0.03447882644184615
-0.02354899096258173
0.011135970604984698
0.027580282771318534
-0.00101867665272478
-0.018880307434086384
0.06918445283120102
0.03423583823901241
-0.07453805369551657
0.053711292086120736
-0.004687777523624601
-0.019182065235729226
0.027869263056757555
-0.03224730973907541
-0.051408635286284005
-0.008412964367272837
0.05641710209688079
0.0073076875257122795
-0.0004612352355021329
-0.0579084761137365
-0.0027951059907300735
0.008895052945637815
0.0012751187286228092
0.006584251742070813
0.029881811970278973
0.05459097745767945
-0.021163420893593732
0.03156307448149209
-0.04021034633430003
0.0003443840065765595
0.08331496832156503
0.017236621565074828
-0.027335315437167742
0.06544643738700931
0.09450399036797284
-0.060879905657175985
0.021209298564435545
-0.10565383297896708
-0.015494347420306302
0.05442300022405795
-0.019565854650532934
0.04179481215616698
-0.03732111118779261
-0.012219890536065422
0.038157139988715366
-0.010323956306095672
0.023558445600216683
0.08001192958563821
-0.024277832721409567
0.06780125647702959
0.01949270016244483
-0.015063286318618353
-0.0012975039228787645
-0.06805774553560034
-0.043925071770650526
0.05569512642711669
-0.037568734936138985
0.09518233105987732
0.4284022610213712
0.8747453898352815
0.4841543982720503
0.07332241448826769
0.017289980040770588
-0.03813250209027941
-0.03743834662501188
0.13217799497852034
-0.04027823527366923
0.07991986341201172
0.06453725973279936
-0.03243295991837244
0.011152433405526498
0.03688018499595409
-0.008523902761033965
0.06064932074378763
0.03552371164028955
0.02768554165985008
0.023684725004616533
0.003572208616974347
-0.0255789504032169
-0.009715120342149074
0.0037820186951920583
-0.0914529712462336
-0.03843576513018581
0.04877781614675902
-0.003155047744203269
-0.01199322975389668
0.006026633132642941
-0.020439789471469544
-0.08083895595230796
-0.03836760262602797
0.028620999807540362
-0.02173306406209019
0.05469048196994611
0.03847541294808765
-0.007796551445369996
-0.07358788107166962
0.09692151754022943
-0.012306934425259763
0.06560621862546182
0.03380558606142222
-0.059395957169657045
-0.027470865241707693
0.018801626172051444
0.06387556367764695
-0.08905921153106132
0.031066827847859274
0.029220541776779043
-0.015616900954192173
0.046598130456835335
-0.0026842517340150453
-0.05622354911053095
0.055402540430613136
-0.05374299788204089
0.003064975559641757
0.09572110217862329
-0.017848905340721543
-0.0367282138725356
-0.03543071338280514
0.04551163831877693
-0.025697669625455888
0.004091291474770855
0.05161118368015563
0.03583225447983184
0.0004026743180974308
0.0067974431212993935
-0.0778719309823242
0.02692020997440267
-0.10309794564955521
-0.009915823509274457
-0.01291023246396306
0.02269593423478171
-0.02147107666125911
-0.03277650113406521
-0.011663429867837511
-0.026627243737514107
0.012320009139989692
0.012723509922395328
0.0019122459795735602
-0.06253614272986148
-0.03043977887858401
-0.018307101625432275
-0.06055239088331468
-0.05009159976330388
0.016389830711631748
0.08409796056475605
0.03647782314552783
-0.008241915034986131
-0.04669167716604265
0.01596638301195706
0.054019369703487696
0.06431873043780023
-0.050213124401448976
0.11671929933479136
-0.0415589795531169
-0.06245390720114322
0.01749229199880972
0.028708818878906972
0.057204413328634754
-0.07279243220538277
0.15117287983791544
0.003046785197218466
0.005797148572294752
0.025615461983453908
0.03875492798620016
0.05757326860089795
-0.08852460868625904
-0.12112229005856634
-0.03746593060952209
-0.06500581490127762
0.013478505108751508
-0.021600000750106953
0.07459259376827934
0.019881255726096902
0.07791264086289061
0.02043885161910301
-0.051860001201657624
-0.033163941826674634
0.0011108436457445798
-0.003909562252437097
0.09011236097883464
-0.0831381671589746
0.042877411364973556
-0.08700520681100278
0.0243733821525585
-0.01350092103720093
0.0008505877182159323
-0.043702327517654044
-0.05834634171103053
-0.002061353942820889
-0.031970514808229426
0.028389558693650077
0.07775315088710708
0.058972814962897815
-0.025239111072665556
-0.023582271165934737
0.018630447751481632
0.047482474184863475
-0.034330540088701865
-0.05589027224894332
0.05338523418252156
-0.015332134694768282
-0.04942179467341512
-0.06087071398824678
0.07909340795678589
0.0007994803004111106
-0.011530232760510949
-0.00847324939089886
0.033965633039378614
0.0032293573708704736
0.10492804954741584
-0.003362784557435398
-0.11313448609954935
-0.01445271289861245
0.0009473654170742348
0.0029633607247511826
-0.04223879761308121
0.008213230899965103
0.022020928489047853
0.4481049314641896
1.0429876993289613
0.4578977343714728
0.17142642157385668
0.006298470003439683
-0.09586514704192106
-0.010489323674270327
0.0007012114577559992
-0.03464893258342835
0.021706226269143418
0.019370711578793054
0.0128995029904765
0.04325521039018836
0.0027445205065987875
0.026345230117647462
0.04497329429693373
-0.028289822340485583
-0.013836770882175609
0.04898503782199245
-0.07917976310258053
0.015816472260527518
-0.007343653369141407
0.006009596526978729
-0.038477853471283574
-0.03280448257758406
-0.02155075761223178
0.09253627137591823
0.023190416181602082
0.01393316897574596
0.05222155684759812
0.01589397690375019
-0.025558444947639914
-0.07969888719608814
-0.05761844836095621
0.03247969811224762
-0.12322608862604861
0.0132182249398444
-0.05791020099367569
-0.05162889059698588
-0.0006643880170674847
0.10478514081405128
-0.06107552317280507
-0.04182701684235385
-0.013338555124712837
0.0445132467856758
0.05815894550902787
-0.03748205730334571
0.0035084070347357757
-0.021031106886327103
0.012681550157423439
-0.045676363336670474
0.05371380238048429
-0.03473434043535927
0.08102767662621226
0.05277399563423958
0.00039024788465652873
-0.03716575084362456
-0.039611838200430495
0.03149322375211656
0.03056094272781705
0.09289880209472516
0.0028651894342635606
0.046929963731343796
-0.03147624598358335
0.0461404616592057
0.040622904521343955
-0.005990664223586285
-0.05806741111151015
0.08548468499146214
0.011970133079453195
-0.008272717291795479
-0.026711820787443677
-0.10333187695409576
-0.01624959335703423
-0.056951192678056275
-0.03550247549890482
-0.11003370463087037
0.05502069614396374
-0.0011811674959917948
-0.0778140633622495
0.043643475349839596
0.07326062154526694
-0.12918186343173207
0.015972170665293103
0.04885062708667616
0.054906355305536905
-0.07391205385075829
0.09130356070177065
-0.07717191922476602
0.028381108505084504
0.10370784532347486
0.01916699864066741
0.0178761524607673
-0.027984866764590183
-0.002769655881831425
-0.04332596040895853
0.033148029450069255
-0.011280445916192624
-0.011084950696168152
-0.04253177198990484
-0.05763150553512654
0.047737111292816936
0.06506266601609735
0.11457550356030136
-0.04998742133988316
-0.0024121712457528996
0.005649541139537245
0.025663274673107868
0.005803855723309558
0.061640150168545384
-0.04073504078832892
0.02279927486219074
0.012086059802644177
0.008772958557688141
-0.028685503924598267
-0.0301771374463993
0.07449525590028584
-0.009465403789159277
0.012988428660535118
-0.13477479668565165
-0.030798634203859074
0.051220114098235486
0.07346435809210153
-0.03932377488671643
-0.00458478778217005
-0.06244921032133669
0.0022658006535929438
0.01729929086615575
0.05011554446192044
0.04602419254945326
0.032669135370588624
-0.07984607284739016
0.017854263733183467
0.012339957174483478
-0.005382914392210211
0.0863312756198754
-0.050893885043198465
0.042963617618472005
-0.042615165102733416
0.0029703450299412137
-0.03650807145179432
0.015454656191543292
0.020311733448232002
0.039138102105710226
0.02976493943540941
0.003483558074705682
0.0415791539082185
0.024838223552204067
-0.016570518041653163
-0.08310282586591047
0.0004093928918681266
0.030410194841173046
-0.05523386676896167
0.021830135090959043
0.01084672765974337
0.1261314136642098
0.44900871237293405
0.9908288239604663
0.470115912038564
0.03611618513174562
-0.09370755180555292
-0.013444080533412343
0.015564839775922212
-0.0104949362064803
0.0545543133814131
0.007151693766019752
-0.0300319292963683
0.06612367705573523
-0.013368190868519234
0.03170715801820342
0.013456975237814651
-0.03144634559261896
-0.04340123696723748
-0.05288703318183746
-0.040325622188660364
-0.015828480773066235
-0.037267406064198746
-0.002722738070735848
0.03816933848341317
0.01742327109864091
0.02914117784922754
-0.03655803659509599
0.03233476610733395
0.019490074936655714
0.05864957253143547
-0.022698789941767897
0.11940454208586299
0.09109337791153348
-0.01698312055822018
-0.013544826505171602
-0.03176033353116596
-0.05662129136033866
-0.07858889406085445
0.04747737646609066
-0.05949868252667391
0.03023793177836853
0.009983645278266812
0.0728217148775108
0.024815715439967717
0.008181828755927054
0.0017316173446398444
0.06075784166849364
0.025206645457636796
-0.030083486949204076
0.019973560867921823
-0.009683529147842434
-0.007770393808772757
0.009247963965599114
0.07798217006263339
0.034481216085055166
0.021381304762810065
-0.0027084226562130373
0.01871508616394269
0.04719510731485156
-0.001290241234178893
-0.10982911321575756
-0.0043151671106841346
-0.047011559057027835
-0.0768664244726399
0.02343463202252344
-0.02321892484445825
0.049869680562296265
-0.06278019188190395
-0.03620743525952332
-0.012687227152923614
0.0076499298046506965
-0.03702730929250459
0.04290358290890391
0.07683410369685517
0.021190613952807108
0.05673029146779736
-0.09360230198302584
-0.0040318192603375205
0.044182551978475496
-0.01980733973401157
-0.04558032280487437
0.05531932016142641
-0.07170208522077158
0.016943549942587486
0.04233085260655801
-0.05912142166348208
0.07796687416900937
-0.030185605332805107
0.024639165502759876
-0.08107934239522312
-0.025108083560921743
0.007444378750449371
0.010222157513202441
0.03770179034265209
-0.01220160996861513
-0.03861845143929699
0.02806736167734319
-0.010224385368430629
0.011249741324974624
0.05049390201876654
-0.035991690797632814
0.03405869213887676
0.0566562379398966
-0.08370524508038868
0.01569553129643582
0.07527412271968838
-0.044730489715083165
-0.004803481199769103
-0.03367383362565713
0.03118316923760181
0.02470953337019729
0.010816598188390697
0.07568554666840618
-0.022378174458357897
-0.05422587861850512
0.04341753838372023
-0.0186038484200062
-0.015645851878128506
-0.01292273022416168
-0.002452167475310368
0.04192432800215825
0.04390725076949622
0.07594407915559029
0.011622480687064748
0.015480802458025193
0.0932653747234752
0.033349513115193956
-0.01635344426280706
-0.031409902005076325
0.010214641877773692
-0.016420114380961106
0.04824236443944396
0.06298288153139897
-0.05901777662492096
0.04036761668046662
0.0521670129070203
0.030842834378630626
0.007920595719328863
0.09111052738767497
-0.0230894783445013
0.015504561282179473
-0.0703361868847015
-0.040430674229694576
-0.025189477600193078
-0.07025028524783013
-0.0393058937158773
-0.030844591603945044
-0.019549790656557577
-0.04738591806519989
0.0037206659341863634
-0.007211408609276975
-0.05055291045256673
-0.01596310476916125
-0.03701011717932987
0.021078424187830257
-0.04914425419263024
0.06044253963757523
0.5689005818377044
0.9701048714958415
0.4834028175271342
0.060849722849623866
0.08533821411847314
0.0015143609725884735
0.03768801649724233
0.0387054033476612
-0.015832002134859056
-0.0036602808078462314
0.02814073333811422
0.03989040008107427
-0.056287034681230634
0.050389427919132174
0.0022615735635608727
-0.01055614413627933
0.03614561436591072
0.04096778608518094
-0.007521686886231831
-0.050029173565188184
-0.054631150971869394
0.03179505703540494
0.0696997726967996
-0.007216505805670229
0.02642623541396706
-0.017673826861158124
-0.014856967287696067
-0.0028558812033679017
-0.012587986429028886
-0.11633516258057922
0.0753536358136397
-0.0510548868535218
0.02968453854530344
0.01606684018909586
-0.14771119184648618
0.01143134463151071
0.055617383498917684
0.03225888940556211
-0.06483212100630684
0.04156619361707223
0.041105155835856076
-0.03879644134754641
0.007848897831288254
-0.0071258548923928775
0.00017088242890219877
0.06794468614758362
-0.042440816053709
-0.05376268924174417
-0.06218644293108843
-0.06956095115605719
-0.022582187477344536
0.03429600082085372
0.0407469484691357
-0.08127001673842672
0.10401230331955238
-0.09009465591756494
-0.00615935049745632
-0.0348303974231345
-0.035252963327485676
-0.034634768923145764
0.04716819348012288
-0.018232167248213294
0.020607422763970845
-0.019812321020195568
0.07867722095174591
0.07588932444634808
-0.11697246220645872
0.03101040146874436
-0.07041899594651933
0.01675098888475499
-0.007049178382733569
-0.031265675799299016
-0.028029208869328866
-0.02494449943421325
0.03408354717084703
-0.020790515807467814
0.013592509902720607
0.05816578072977849
0.011846888290802536
-0.018616972345139392
0.02025186773200359
-0.01144718304421062
0.043498769313777254
-0.029463594425646163
0.03600901021572547
-0.06733455510617022
0.04234302044594371
-0.03155129079057735
-0.01198964130516216
0.013746441932336935
0.05153564401938157
-0.04684377670174572
0.05919018416903298
-0.02384260487019652
0.0466082648738243
0.040817949003152006
-0.0636868020160098
-0.10390218067131732
0.026253478574252222
-0.07876660150552105
0.017617882152539104
-0.05348320759878677
-0.035131449099230314
0.07663722889743976
-0.03363569475318982
-0.07193857507750835
-0.04254214885077914
-0.053643054646605584
0.1680498679193868
-0.02214157397111867
-0.043979435309290854
-0.0033212569194748737
-0.015431748916657313
-0.02681249720879532
-0.10338738067178688
-0.002890226313557147
-0.09978564434764098
-0.03280477749517274
-0.026144831946061
0.10640226464198287
0.042726490396545
-0.06062868156358599
-0.06315931976337645
-0.0129600268780653
0.04019815509218666
-0.07379314890095144
-0.04993983300858876
0.034912520887582586
-0.02985217228125996
-0.08797417021763772
0.04875290307478156
0.05937642793324743
-0.0811461898005138
-0.055195258205193026
0.033243533306766555
-0.05375448173329531
0.03328802213060136
-0.12556298354498294
0.041950156662904234
-0.016787871179052786
0.009938979434520124
-0.024447872700294894
-0.06373411827376842
0.01498387855309117
-0.05896551313754572
-0.03425691703230269
0.029908131078760454
0.02110234712915459
0.0854059172020403
0.05420284045872298
-0.057849677753840215
0.12594062725818614
-0.07397496557254174
-0.018719847280086896
0.03213865754879095
-0.020213839963738444
-0.05291979142921033
-0.022167983965050753
0.1378177802204345
0.4384678422755933
1.028669411289833
0.5269535591245389
0.04134909813971082
-0.06300040843878629
0.06167678325583821
-0.011184532957604453
-0.010506404267393694
-0.03774303052755024
-0.0030471337888529843
-0.04215640589622138
0.10875073291847251
-0.08802391352072347
-0.017960888087939508
0.001704010796071166
0.03115657470396392
0.013284138848656799
0.10752024953239328
0.0026947402075478506
-0.11409857841431587
0.014279370818921059
0.02174707722992483
0.09936866193087829
0.019351557000857614
0.029683214132703386
-0.08452429245548036
0.05046238188922521
-0.00025365469572122105
-0.01357367784637999
-0.06235806939787655
0.059761486875429676
-0.026369370764528013
-0.06816062944165255
-0.03976304915937216
-0.034341367222879386
0.022635209377113982
0.018484546436293676
0.03234670711791524
0.04191291467839809
-0.03142670582753996
-0.059833760505327516
0.014824064045677245
-0.013116681878887863
-0.045828874182627315
-0.06448871026540642
0.008845912542263065
-0.018881217910789793
-0.016486362602716322
-0.026737669751700596
-0.04817606283216838
0.035902497849850085
-0.01914294239651971
-0.025688066352061945
-0.05903017162835261
-0.009911135815645452
0.02096126504207677
-0.04014129817165606
-0.037563396568443756
-0.07337838705037016
-0.046136146105266215
-0.007961502629289609
0.0001458487623266326
0.0036720227718054915
-0.015171406645228326
-0.022065365372749182
0.04551926128958982
0.028503064473131796
0.028660102624615193
-0.013520096755145768
0.11541862913859363
0.05063275520691146
-0.09028894872516394
0.025737152369383304
-0.0007959475313292063
-0.03337426129815279
-0.02617147082499498
-0.005304538514360715
0.045251243179918785
-0.04517786386476849
-0.05580429532590654
-0.013293625613758957
0.030163417747387684
-0.012747062708233762
-0.02610969324670892
-0.08188226186003832
-0.045267309094206745
-0.11052986374412946
0.06626588088949265
0.05439012905145686
0.02889252073634037
-0.004861196148298538
-0.03405804137543424
-0.052868965267167944
0.1415696019751432
0.014470009898482248
-0.016022791258625265
-0.10919564976715689
-0.027799692421441136
0.02716304699216021
0.034810586305459836
0.003368910116451963
-0.03762491148662418
0.05934372152239891
-0.01260944518913996
0.0030934416559468534
-0.03960313028763158
-0.0790486768837102
-0.02129700572888446
0.02066699366264853
-0.04064982876256949
-0.027637479564063833
-0.001621212349148904
0.028816199551452
0.0789295857798843
0.040521184224781355
-0.02074667679436891
0.0017839955789047516
-0.054274952429062356
0.12848654687796832
-0.10068867842707219
0.013193300276607055
0.050415371204427684
-0.14443050610795305
-0.05822020589433091
0.030285523735054443
0.05671977955795711
0.0585809756581165
-0.026536414864902852
-0.030715569512409908
0.06206796301300717
-5.8645947238795666e-05
-0.025728938241347355
0.0341813012311675
0.0924171364420582
0.027290781320285673
0.03294777601548895
-0.059122402151820075
-0.06617309309940343
0.0031939748882045815
-0.014366846776130203
-0.09383631097042339
-0.008548107926608713
0.06897434315953933
-0.08675788717104675
-0.024553364711722425
-0.0776211872651463
-0.03409554896743933
0.013710633311111862
-0.0331783555990051
0.01611186891932015
-0.07464083214293317
0.07296521099872996
0.050295589097266835
0.05574857733595249
-0.09950254977147237
0.14791068926399242
0.47853161794869226
1.0128518674201072
0.49024903536357034
0.08011322666764291
-0.052617499743964846
0.02762418576195167
0.03731226514876556
0.05327374284515707
0.04975213110862939
0.052514663984892795
0.022748921777254325
0.03756808568767685
-0.011021916941586685
-0.06799366775027847
-0.03459626878297566
0.041779345706335264
0.05386459820722481
0.04073606092299756
-0.03145877281215679
0.037120677522552735
-0.057412395676086726
-0.037221824944980414
0.0357204270672193
-0.047261669890385834
0.005483037629155218
0.020596030644272553
0.0802171367020833
0.06938703706891224
-0.06787511496231288
0.04859357557911774
-0.019095703537121242
-0.043808948477076184
0.0638784703323889
-0.041006492946913796
0.07509979957593174
-0.01622576505680472
-0.02400072774164078
0.0039018696096992226
0.07251945885927871
-0.07178632525692583
-0.04454956540317548
0.08323643016021155
-0.012629579499851995
-0.0018239585854273406
0.018648222948064123
-0.010031277557538295
-0.015460212731388645
0.01855206865822743
0.02409056072182077
0.0715216342287105
-0.006949662619036504
0.022772794850468767
-0.031814801269407014
0.012622597542131832
-0.03548027143172615
-0.039415155297840676
-0.04604917434345851
0.03610568927746965
-0.05872626126081504
-0.04293790550772022
-0.06850593545775856
-0.006330750798355072
0.05915714685308289
-0.13384967683404853
0.05181625170272428
-0.03834533920237501
0.022914898966081468
0.04600893066656829
-0.06984456629219853
-0.06353966804284865
0.07077887373871848
0.011822549605841115
-0.06113498297635322
-0.026474816860124734
0.13011430804960308
-0.009838596629646328
0.11176182108963253
-0.08308735605951707
0.05481096613010063
0.08525430532177085
-0.06951346620315894
0.023609015412407206
-0.027991789905321574
-0.09942160587324603
0.0273572397565877
0.06947974971286562
0.0719119448925956
0.09919906309598192
0.050800335035365976
-0.006529150788418129
-0.049282775650074793
0.016897335258122162
0.06146309956492607
0.021277835735816826
0.053894544267784505
-0.07018153533313097
0.053638312645224
-0.07031097149171474
0.07387892736543744
-0.05778901393154107
0.0733646494042751
0.009093420014660689
-0.0867117779014153
0.02946457548572103
0.00688551541110809
0.05825489789768438
-0.013172933071902019
0.10350549755681121
0.014777556255464279
-0.04586471644274758
0.09085417935503232
0.0530214067901815
-0.08094906915281858
-0.11098032644229115
-0.14933170135592228
0.062104209527059
0.013765284442477427
-0.09424142798235803
0.025959346218132798
0.09866145916538518
-0.11177569402538444
0.06073002386330084
-0.0377014042179484
0.06874191373142184
-0.0067965452314515526
-0.09059714104642662
-0.08840534239780208
-0.03779777478219635
0.06712826846907309
-0.058346061344120875
0.055788450461384066
-0.07207795575445937
0.03894577266862833
0.016593419991122398
0.024990824991533187
-0.05510028434521125
-0.07516814172212977
-0.02474492000223258
-0.05440135035602394
0.038522467150209995
0.10201809415674708
-0.032553589958931345
0.012023810069595013
-0.046652973610435425
-0.003987083246915006
-0.09160795438795849
0.000766014748487224
0.028960023494591064
-0.055659885206462756
0.01031783214632144
0.0479747236093693
0.011708414400294775
0.032026447063937334
-0.0027249545004147378
0.00756335822815055
-0.018784994264870694
-0.047849804713242926
0.11663545705849243
0.5649442570154661
1.043487403437275
0.4836687174971587
0.09179243002008489
-0.04714410374376581
0.03250026660666643
0.001009778045026912
-0.0886888317282978
0.024525203413569424
-0.022355231677625625
-0.003147552789577563
-0.011865344845936855
-0.05146074630949785
-0.11738792712866591
0.03985795111791466
-0.03970583206297629
0.08135369475372202
-0.0074704536719041635
-0.05566729655068325
0.0444760312384998
-0.07009448091180673
0.07520468539422294
0.005848103886722575
-0.09091798959770946
0.008182589502077385
0.05926497055894982
0.003827010172538439
0.0013393638351843213
-0.011598990589778002
-0.008632828218159685
-0.03225281546207561
0.015975557610302785
-0.09102424935697713
-0.1435390008236994
0.0010586499353635007
-0.08916074645933605
0.03339005189145445
0.0760652355605633
0.09484334823934137
0.040243739893199654
-0.06038033534773327
0.00807539726978028
-0.03995435502661525
-0.08454016328066676
0.09994136670838571
0.007246911954998981
0.00934855644595077
0.014157368839876075
0.02645783625593509
-0.06956518338718658
0.02549349041482704
-0.0705043533531582
0.014220693020850855
-0.05327404871568046
0.005103342506837955
-0.07575169969307721
-0.009280208370695224
-0.023174774910266795
0.021265487771810115
-0.05983219519931021
0.04323861922935712
-0.08211363741208699
-0.05266177990717256
0.08515405898680395
0.03002461500026911
0.018112482921829157
-0.03353187840756642
-0.08698881925578313
-0.010162910600070149
-0.07373886140614078
0.0025078671804850787
0.05750255599509571
0.055783412665206526
-0.026759518137638234
0.08378866508886514
0.012080036013988658
0.051178026883466746
-0.014934465586234656
0.02874369857890062
-0.03420841180370313
-0.0667969325311771
0.04594053276026785
-0.0071910982816579
-0.028833115964964497
-0.032525977827151754
0.04389694353979069
0.04830541714042849
0.06665772878599815
-0.025742427927616354
-0.05279228676043655
-0.03972372452513828
0.03269387775537876
-0.03750989512547727
-0.008275012775412661
-0.02114885459380696
-0.020328834820122904
0.06069846592342648
0.0875169027200605
-0.008566817028113375
0.028336500909964393
-0.03353067318780627
-0.022771272795441423
-0.04353108465066803
-0.009841620771353032
-0.0375671833913739
0.09364781790084087
-0.01653323841981319
-0.08605463943527353
0.04072467056654613
-0.04487006256124229
-0.01346622543595958
-0.08064484394220471
-0.009058922185824544
0.011277685749490049
0.05001272174596033
0.007024322031031716
0.039550581250987586
-0.08942543871780478
-0.0605561466633803
0.00863235351437538
-0.03857877329149413
0.01337839519056662
-0.01540934030017059
-0.013269895400604593
0.06043010660361641
-0.05034255707818774
-0.005981752406472835
0.024283758646843474
0.08132090515403514
-0.004134940376448678
0.050530391646974177
0.0025289633038797013
0.03228054938117527
0.01740059799086681
-0.025814786179018646
-0.06267416198491625
-0.051530714214795215
-0.005756341027042488
-0.00903960445299867
0.04135091935653544
0.077286291515848
0.014558108248682906
-0.05112074324514635
0.019873301912696373
0.07573509885551993
0.021331431590894245
-0.009000572473178857
0.02755846746888123
0.04941049342324849
0.055751073311246895
0.11520808754187216
-0.05594243417148061
-0.07889277624914709
-0.08680155803017532
-0.0729698321896691
0.15520168683747573
0.5125039170876377
0.916376620385862
0.48360769260554415
0.2014894857191165
-0.02844849840158424
0.07967860436110336
-0.10497055338283319
-0.010575996030084165
0.034836225260810115
0.12106181826210388
0.052321152556198826
-0.007135857152769766
0.07940420265533527
0.015473084351493483
0.019036296780413915
-0.033448092191081205
0.03649410529503407
0.04632651275263916
-0.01991179092731247
0.05086273036531387
0.040562029922954934
-0.0028020705598859014
-0.03899864538101946
0.036534775606840424
0.07873101151399803
-0.08492448373565625
0.02324715646592854
0.057638947744862105
0.00475830790654463
0.02797902602899202
0.013635396908623448
0.010216818395926116
-0.002085317096384915
0.012308548558048332
0.0356720035284224
0.011870836613861284
-0.009936756218132444
0.002598696862731236
-0.025489694316136013
-0.02586064476663032
0.026371290068856742
0.03523942701635652
0.03255292687979169
-0.05799553613899788
0.07446741884054774
0.015261636773259571
0.008059500021670576
0.04549723979089674
0.06573310807044691
-0.025977497298710107
0.011157008655050055
-0.030868762912770242
0.0469801409484221
0.016314784264524824
-0.0001493267327113527
-0.05142682821080641
0.005892948722035566
0.06768336610219065
0.08573091997799091
0.004027939889272163
-0.049176002694784074
-0.061983782667055336
0.04209565510538396
0.01267835340249193
-0.029568249220305105
0.025450611564264737
0.013720326290843797
0.06060306866645161
0.035009117616665614
0.10281993331735001
-0.08670787961804163
0.03889498295858996
-0.03610769433972686
-0.001133417212586228
0.03248410058195552
-0.020819677464382163
0.035671306410849
-0.02194975345108502
0.061412215297395115
-0.06038846886580956
0.07725374956242202
-0.02933548693130719
-0.10836103878335795
-0.04499794488780509
-0.03204005614773391
0.006064516859497104
-0.12020235833566906
0.030100453953420477
0.11394808448443272
0.03777977806085091
-0.005193379812064519
-0.024372016713377298
-0.12149112307299088
-0.04049673359282635
0.001248027208039456
-0.03106418801033886
0.003268191289235308
-0.025605907245574145
0.08509936900075284
0.009796285689396732
-0.024141578888476897
0.04367572734658928
0.04524939034506087
-0.026971192223013057
-0.04631954090680382
0.027068117262814835
-0.07683560543416454
0.051892123301011166
-0.04228348641394105
-0.016133336394637994
0.01185698654862346
0.046401907755862254
-0.06553077949407146
0.00925409088383807
-0.05796460429031132
-0.03788100683704045
-0.005644441967075682
0.02599706003468104
-0.04024343734093422
0.07817105129881767
0.004575116722587361
-0.01436062563854016
0.046684780860569014
-0.056750423571257105
-0.014023693325528462
0.011567957495579229
-0.013927831892119226
-0.006595954291630398
-0.07308001296879432
0.049521912248058415
0.003662717753804399
0.06046837469093298
-0.04305600776926144
-0.03702255659818298
-0.03735151070941748
-0.061285325619629384
-0.014119766094325765
0.03474963607893414
0.036114206232127376
0.001212645136194061
0.006954692969947666
0.058381785754586774
-0.04528321899196137
0.059223795810646906
-0.0104660010736396
-0.012872950975600645
0.045410589629189764
0.006447406639802288
0.03299554405963361
-0.08548855594534555
0.04368568397494043
0.04618043018675615
-0.09845856331683318
-0.025110154629829302
0.09025074621065973
0.4268805117161492
1.051415786484658
0.5207269375403492
0.19572748818103344
0.008703320623875143
0.04864029315268506
0.07664076657522623
-0.09521792367628687
-0.013360274043808072
-0.04744381778441857
0.07956827247235042
-0.03509602826640012
-0.015896224445392612
0.014104423116555992
-0.016738043887327966
0.029787220934338887
-0.014536393160086687
-0.035522547631633025
-0.07976476687659684
-0.006390944573466061
0.004494147011444651
-0.010391456196874389
-0.07891411934144399
0.07133373029154569
0.027903367983411004
0.015625836068732173
0.014046735646093496
-0.03328709065827773
-0.00685237104014374
0.03649613824455786
0.027233397712389897
-0.01542272481284286
-0.07839497688404694
-0.04042367910209035
-0.0005595479027156161
0.07379199259096066
0.04416748943794323
-0.038960181739469225
-0.01539839465821965
0.005155292982265756
-0.0437678418820909
-0.09178096145212676
0.026446601986482417
0.02866772073440931
-0.004999947934121358
-0.03682290553290969
0.08586820439224377
-0.0701821198716964
-0.03676105363033582
-0.036125850943953944
-0.08515370259434021
-0.0603208357396339
-0.0987027208374671
-0.09292095385917294
-0.04439580874429783
-0.0012198459793952635
-0.08027386088772236
0.013856975350665915
0.032945910737294595
-0.09515245282247903
0.0009977471646672388
-0.012674434141698386
0.01658221651497129
-0.017890789442358758
-0.0007663030407453792
0.0019457433369323776
-0.008335874004833158
0.049845130677434096
0.08150882568874616
0.029899927306668645
0.0036325037647940935
0.03139379946719686
0.020968239973786867
-0.0030331539821288277
-0.03033075161516178
-0.06077932881653243
0.017616745058892984
0.02925652003666981
0.032666408441500275
-0.027134991403967402
-0.03405541376743788
-0.040876404044192266
-0.057825070630724944
-0.08706670172306502
0.06921596858955444
-0.04713480068553673
0.0016352991884509814
-0.005609512735639628
0.015514635552483655
0.024678341464027448
-0.022268633778695143
0.0048148828739292505
0.05235604222609205
-0.092151977500538
-0.013264371954407026
-0.039701452745999455
0.020085105824964256
-0.08921770283833291
0.010311521866815745
0.017679040066836137
0.05273538392570251
-0.026490338334720788
-0.02064829958534249
-0.005929937612401936
0.051422044492670474
-0.04290040009634519
-0.04099810094134654
-0.04392343167042921
-0.07850136022788995
0.06700493212518159
0.04807548066504144
-0.08627772371001251
-0.02560632866677731
0.0023824487903360493
0.027381426613753625
-0.11018509003429525
0.07879210768432682
0.00844850469502822
-0.010957552461526805
0.04873743621152258
-0.08409189000609085
-0.01646967591485355
-0.053213265479852084
0.013159405514478018
0.06895950628426314
-0.012585717610267373
-0.0697655807692083
0.04834823738553313
0.0625690960256685
-0.032171423325037855
-0.082278366764036
0.02256206054834283
-0.009247112281913581
-0.0009690584250523731
-0.06625420620979038
0.051174650127328684
-0.03156755657775663
0.0003822338269500838
0.009299366319680922
-0.01728075256469414
-0.03344280311374685
-0.07553982657888399
0.019067284953095964
-0.045510773242588454
-0.04373542180683152
-0.010843856181373037
0.019730393087999988
-0.026788096351792964
-0.006460653996092013
-0.03734649690650958
-0.0048608704159846545
-0.0719617119092537
0.029687624923664176
-0.017162892907273134
-0.017217586971037077
0.02009319029853461
0.04681972836297225
-0.03183061794463553
0.007177923310763947
-0.015163383686914337
0.04667585637301233
0.519662449317471
1.0642003196410892
0.4167137525703335
0.1477995837113547
0.027925614656079203
0.1439997219851434
0.07818218460972925
-0.05387961006841524
-0.12655992755039433
-0.08369763656749152
0.014963544814168464
-0.03594261913003698
0.11354705054293182
0.00703500705297926
0.10886779820661943
0.041978434745093655
0.02051224658839609
-0.005855475347851631
0.019428230531568023
0.06306172880443826
-0.009223196252513909
0.02739772613719972
-0.0016314958397458204
-0.010160193045877397
-0.0013736340908096336
0.04978376698593906
0.032795891558305666
-0.05342709388507384
-0.02254399108254508
0.006583817847111245
-0.031409255794858336
-0.008542498337666935
0.014995530060361582
0.0173019948181123
0.042365292043018886
-0.08170001708957761
0.008023782317131248
0.06256206372993538
-0.052482307575111034
-0.028809081068799515
-0.026649950289965682
-0.003043367971566866
-0.00602686221542819
-0.001570983442404083
0.020659384099671076
-0.06829574873507309
0.03808453479133155
-0.02425830119777919
-0.04453842447200583
0.02110950798327323
-0.03719832451405785
0.02681175025257901
0.012104601648037179
0.05324022137674011
0.048433744331525336
-0.006957163462818612
-0.05176701016464729
0.032082648455178796
0.06042106256518848
0.09911748943088894
0.04553306373694338
0.02291745799015535
0.018679596913410906
-0.018936256688079356
-0.03371905710246724
-0.005772018658730131
0.10441724314588333
0.08423207160975289
0.04418431245376783
0.0019200432267153147
0.04293568865981427
0.07425889590218748
-0.09608738634065908
0.02952815525560097
0.08657195310167136
0.09373944154925466
-0.0037103897482449427
0.033323649070391446
0.004990507275461887
0.07707604921451128
-0.022133150292333682
-0.01929109848777636
-0.09490046919307436
0.005877784207708573
-0.04019136974349476
-0.0270279323172765
-0.024473657353057454
0.03758525831325428
0.014114689619164865
-0.061686538606089636
0.04076342792863156
-0.04050944542965834
-0.018040949575393872
-0.010102518758420626
-0.004803705901848123
0.01179909630959846
0.014127943968140056
0.011050651542169172
0.018780654467175882
-0.0242804862505095
0.13151833693169648
-0.06737841687845408
0.03577064431368296
-0.0023593095064341303
0.08646587473215696
0.008801194139595108
0.02768287776882108
-0.008157539252157061
-0.08790278410685365
0.00591723789700094
-0.06660977687921875
-0.007082072292279163
0.004633838396399532
-0.015683646412585153
-0.005292059612333181
0.03449005142073318
-0.06923712765408106
0.006822172869791085
0.0004597218761980649
0.1378788183036069
0.07749233414262388
0.07695560533431975
-0.0014023973823336319
-0.0018225935518980118
0.04268931007512325
0.015194330058552016
-0.06810976976233868
0.008832669432884643
-0.006033265291233329
-0.045737233620514926
-0.003955671594587493
0.044475103826432175
0.0322553031752885
0.019252290901714045
-0.005605144412013719
-0.02148135855924585
0.0029837874789911175
-0.024878946385984896
-0.0007374339176447308
-0.025990589765298944
-0.027552521249746904
0.03242708635188306
-0.011544118775618624
0.003077381136666277
-0.036884135935623875
0.026751788366401543
0.04811699073181373
-0.03531800039380915
0.0276511384832927
0.05978416539322854
0.018416608345801003
0.0927119030459012
0.5740723156825313
0.9217285047292609
0.4901066929058853
0.1036853727255441
-0.040198445843754226
-0.014121129895876317
0.014277573635452848
0.0798738433955851
0.01844926318248818
0.014393755360889732
-0.008944868795677078
0.0837465275184668
0.03185265695835621
0.06364166896900826
0.005283974479533002
-0.034558461281206515
-0.058466395143253816
-0.039063563246094946
-0.07400241375868362
0.0313996241553531
0.020252203472644455
0.01855224534403821
0.05456852942828099
-0.021713136676626513
0.0051230681558088855
0.03647366377678732
0.008901160801075112
0.02632438215847569
0.016539371749354922
-0.008044839592576292
-0.03710829651804238
0.038301754165519786
-0.07042439048294212
-0.08046514827036787
-0.02636947819768684
-0.14051248466219624
0.04136997040248458
0.09679634204610942
0.03532860501552297
0.035068744289540564
0.020910956768747855
0.05898166403035774
-0.06586050936383431
0.028167009135481494
-0.0032261669130921517
-0.01904854096144088
-0.004136222109270446
0.01007396544007356
-0.07788087255431353
-0.0003039480397746002
-0.03766239904885159
-0.03673163733141488
0.013581601122270881
0.00202270643345067
-0.021484712345440877
0.02062534214449683
-0.0020339927442942544
-0.01637204457760244
-0.016715221398957307
-0.0007505013522931068
0.04121082930052057
0.015053760678369136
-0.039409217479072924
0.030673697098528754
-0.013975943628809271
0.07311742672023316
0.04268026541488997
-0.04761028830329142
0.06078735831054254
-0.04926074566615782
0.024801808384238906
0.0312439793857913
0.015063574006049942
-0.0392835220828196
0.03278804402613532
0.10315766846687352
0.03359072883091337
0.05649524605645322
-0.07934077525099814
-0.0901350659562864
-0.06647433845070415
-0.0005297026339365519
0.06274462365356745
-0.13125139942025607
-0.013439380623649562
-0.07360171659829262
0.05278997737631408
-0.054579964424238785
0.04046360041059834
0.06666716520116238
0.032366694383578413
0.012838843495282932
0.04754926159522083
-0.051308618105157626
0.07830149314363447
-0.0018392314284536835
