ecg
0.9405667619885354
0.5245566471862027
0.15258148871318697
0.021165823483755744
0.02871699267911103
0.0049443070696526805
-0.08162970141950865
0.05108376777266843
-0.03396578784451253
-0.0836423926019171
-0.05760148301900975
-0.09331250619678132
0.011595546833831388
-0.021627394157967467
-0.0022094003530248626
0.023597106043639463
0.09426169076781893
-0.07012963310235344
-0.026824529740688177
-0.004589686414746158
0.015189447307924153
0.023651387044105406
0.05449143838067841
0.04593455098185672
-0.053104605612020794
-0.010639678192802498
-0.03556231872887734
-0.03321039861874591
0.04277698103016672
0.0626750247701026
-0.03985601424087798
-0.05237542495664434
-0.038515430106880966
0.09419882203632092
-0.03647479198760441
0.0247325003522128
0.02277751894989332
0.010645335069367809
-0.06603696354589488
-0.02575422103890504
0.001974430666080183
-0.03482417203742552
0.06874432353620734
-0.07275066799391296
0.14825081439743373
-0.04796968387525925
0.0388673605716964
0.01587939340272485
0.05680202432502812
-0.02369738987818547
-0.05638837628227588
-0.02930426116731328
-0.06847220262420656
-0.029664980457523693
-0.01845546204766557
-0.04228758948164204
-0.038367700305978844
0.020879939059194025
0.058143446728153005
0.08072130915425468
-0.08338954949733096
0.000743706293158599
-0.03661104702951119
-0.1206916800945894
0.034133305794488825
-0.04175125330132559
-0.012400385250190375
-0.043491539052427655
0.023358698168592353
0.03187847841934285
-0.03773544494243103
0.09193853647531802
-0.062372015758833776
0.00016886792987643853
0.00845769058608251
-0.03147827452454207
0.01727648714672805
0.016700820806837498
-0.03914244489115991
-0.0746002324858145
-0.041299528530619856
0.00725178697860211
-0.0048817271293245725
0.011201668507811022
-0.029204725966571483
0.03068890975774311
-0.10034926510786034
0.016192239646847708
-0.06195363086079384
0.02158069536603351
0.049564050213881564
0.045504023229339226
-0.022668946934685987
-0.01428649829049001
-0.006754604317757519
0.030386821350215105
0.10325021060542944
0.028946538965251314
-0.0003288432627894014
-0.04809727238521606
0.003614049077348249
0.013524683288284982
0.04314477548006557
-0.02249118015159432
0.019016557647821505
-0.05691024669263546
0.010477457541687945
0.006963887422483177
0.0606908242600889
-0.022226275269174724
-0.0014901279907915364
-0.13952961966992494
-0.0270978717691926
0.07007412987397682
-0.06352974382803292
0.08775785600974767
-0.11613547467898433
0.021939296759524465
-0.07594759263467618
-0.029738586309447104
0.05731382569338531
0.00048475347261270796
0.01143344440574149
0.04458372606845976
0.0749428382240274
-0.02169088231689871
0.12473215947795274
0.002086183757457122
-0.021937779815869057
0.09433956155738804
-0.05761880469749782
-0.010924673001321175
0.07659966468940199
-0.0452180388957764
-0.05696995615238222
-0.03645233483811775
0.051018063952502093
0.008805172871003932
0.026394131496657577
-0.058614357871467196
0.022006460889408126
-0.003134879184047001
0.06420951445263907
0.005075905613206345
-8.153395708646051e-06
-0.06184410326188235
-0.027187010470328538
0.03331773034201844
0.061311812016642986
-0.10674109522378195
-0.0017586671686922806
0.055006255971587564
0.009860583946159431
-0.0754198826744173
0.0024508967627791135
-0.06821248137272243
-0.08320507627926621
0.18283851619460348
0.5213139566884322
0.9576991635433904
0.458624880517902
0.06438500271089725
-0.03858023078065219
0.018328674451226195
0.06467832372917647
-0.059528997186137945
0.05079913727571961
0.0291564853919841
0.02264921197840905
-0.021123733480850383
-0.012847144818443894
-0.013444269392008913
-0.0033822314136486365
0.034898367394953396
0.1357490407636367
-0.006001081838909918
0.006972972700394046
0.01975512142212818
-0.002381043388844179
0.08755342973303985
0.04014241813504822
0.013759415033576323
-0.0018838290544293233
0.04835731895896161
-0.08899801890848597
0.056006101983923785
0.019086143324167
-0.02943265669921476
-0.03302594438329871
0.022154735441620214
-0.01447344044762474
-0.015665779952968414
0.016333777857047236
0.037095687425024254
0.004793937708084563
0.003655952469805197
0.033408893960082245
-0.02103901549415281
-0.05516477090536059
0.07013591527756782
0.05283131830256226
0.049443051148485725
0.009081487658270966
-0.06590636896861919
-0.010416653743918388
0.006066519091937259
-0.04360378006462426
-0.03720901254320723
0.04150291691179958
-0.0014677285512314396
0.0239268510689325
-0.0033263750657428442
0.11437761261386617
-0.006867182038632525
0.038548245893344865
0.023054402944513223
0.02634606694768102
-0.058808658135745456
0.003722997924279478
-0.0013220293851447925
-0.055891988926009495
-0.05648462744707794
0.01584534435692592
-0.07951960093835037
-0.05095923849428324
-0.04411960940814896
0.04287055670158041
-0.0019354633430365487
-0.005963789259868184
0.03627958519824439
-0.009155954775784741
-0.009839187093963142
0.07459507215505576
0.01804876196329552
0.08690040614480793
-0.023398313831046246
0.02568663564358305
-0.027187903879744825
0.06357961714684214
-0.02549182898321108
-0.012307690077698677
0.05175803915500843
0.03848196921710338
0.04818087803090869
0.006107169037400494
0.016007079903815703
0.08486101029861372
-0.10821521708283449
-0.05310109488374909
0.07105933622139875
-0.019696368805721166
0.0465414846702099
0.09310125581439267
0.003918715065131929
-0.017783117463267776
-0.02371759477724385
-0.010260194369589401
0.11542387337851011
-0.03746618900096982
-0.014126079480846388
0.07014633190691924
-0.07699305119347524
-0.062008593003503726
-0.03504156009776286
0.00775283260938453
0.04124811607287077
0.0534463797870824
0.06753396847412262
0.008247189803657583
0.004826385678077023
-0.06065135173686795
-0.0015857122505572683
0.03520630880891059
0.01488301293022773
0.018365703051496606
0.029673253860649024
0.08236253971103084
0.018809247176405267
-0.018914329763336162
-0.006107051173665626
0.10004793195808044
0.06225709978746864
0.016028713292689314
-0.0031704746513067754
0.025241370590745493
-0.006118238918696596
0.028603508171966188
-0.029965168770062542
-0.0072290561842168165
-0.052119653463253084
-0.006353901316538322
0.04499315221365949
0.02074297595441422
-0.021949659819247513
0.0013014696441830027
-0.03742875207636245
0.0779838023768105
-0.045874577973067154
0.0034618372004264417
0.0473564165343838
0.025683936121298545
-0.028430631431076766
0.017233055770658343
0.0849043383749899
-0.005053887443386287
0.010065590868353905
0.0026308711833454464
0.002626054704137774
0.04186878841296845
0.06556870500438743
-0.02378818189632535
0.07212502409867441
0.16075108917591058
0.5219699743631664
0.937677896632215
0.5339801321463421
0.11839240332382608
0.003282418830536558
0.06047096179012079
0.09209589609960112
-0.009448592589600464
-0.005659762471309133
0.004643906510375998
-0.06541470896231431
-0.0131484612118421
0.11426676196298072
0.05791925266873156
0.002021060766961159
-0.09768667336093767
0.01992174824993124
-0.01951557214273051
0.06413719452927315
0.009113751939741555
-0.0575797853078292
0.021113129898006636
0.012162350716192899
-0.03780952926055753
-0.015492709288410032
-0.03885067603316258
0.003226317471573298
-0.028614812069550945
0.020188654617157197
-0.020822880817196607
0.031831739202275416
-0.052360698031090475
0.021190681900641828
0.060365650808423134
0.04221362632145712
-0.041856625573179436
0.07931183581643372
-0.030892224412557304
0.048189781396811585
0.08187392662845655
0.06830767215792242
0.051763518137975306
0.12458323299324568
0.006277010171805277
0.005367688123099828
-0.0026767297102359964
-0.026836147100241764
0.004191688536396902
0.07476821966340295
0.01154298504374672
0.0014673772077369218
-0.01760697440345321
0.08022078973174235
-0.08381513596252438
0.04995454781106462
0.06593638899371233
-0.024280216229832903
-0.02523369211472844
-0.007759642668105595
-0.05582745045363742
0.004737074304631527
0.04179396258933776
0.04457047982634752
-0.019277507536609353
0.10181055436411811
-0.0368500786033523
-0.027300611873778153
-0.03413800204523816
-0.05226425323397402
-0.027895402783230657
0.0747135039163964
0.033182624824646255
-0.012986496987131514
0.0531027283555648
0.06876947594566825
-0.020116351217345996
0.04024892248941378
-0.0044569264885029
0.03451502351275825
0.04658757589343766
0.0006491492276186301
0.04088452442751209
0.005580735863139999
-0.04647349334628669
0.0010907352596697835
-0.00028121528319263023
0.025177496565261793
0.03553151496103026
-0.0308938001348291
0.06195605821556265
0.029602836280382877
0.020528730286774224
-0.017039491868599075
0.014017141482963614
-0.006590629547089089
-0.02103560399526299
-0.005112298633997158
-0.09371370680612788
0.007804103254627232
0.024419225003169676
-0.04490389066418313
-0.002163932017808534
0.0052475847879963206
-0.03612841298758677
-0.019580696557403264
0.009446318469542019
-0.0593696684430348
-0.01374973172050243
-0.07053201611014968
0.01267525311321342
0.01677202756002717
0.03469837222180741
-0.006725621114512456
-0.029277488020627487
-0.012915477785656052
-0.009585586026391965
0.04233097967558766
0.04357849812883059
0.06951812040551518
-0.010332670395447302
0.04077088949833033
-0.019870536738946277
-0.02868142098088052
-0.033928524301315086
-0.006120254895806161
0.023665966237040426
-0.0106463540620464
-0.03991991939404879
0.025326512314783556
0.020292718266894175
0.08286766926189745
0.013162754508316646
0.07200044483812498
0.10516744495596847
-0.010576935870165543
-0.0064146059038510525
-0.06701475161627143
0.0591763594605407
-0.014486029797562916
-0.0009359652236382608
-0.033399829445980425
-0.04925424052172562
0.052230609760685845
0.06721535655465953
0.0048027007944565995
-0.05114919227714
-0.08643319608074099
-0.005645704400756976
-0.0018364450553905198
0.06052749329310208
-0.02744791572833202
0.04893510776055491
-0.040193692389040976
-0.03758503614636309
0.1450472984535413
0.5011123982689751
0.9534108473229661
0.5870046125190214
0.17258222637343
-0.06714970066260528
-0.053046212182376574
0.046161935849450934
0.025929876422387296
0.06114476165616604
0.011078121543217547
0.02930360823735822
0.008538180772216358
-0.02466314552054063
-0.06646730385870075
-0.04307308794757159
-0.11860696641875715
-0.027433799019468248
-0.04282000429100466
0.09827334298256174
-0.009972740349519886
0.028952213392842124
-0.0036423366497594285
-0.058631942402322945
-0.01284517219493854
0.053630506327538234
-0.05212336362438927
0.0652386211701985
-0.06331994991438322
0.0572206860361132
-0.055040001452964595
-0.015309451792336413
-0.023407108233229848
-0.04926626214502434
-0.005417535076930064
0.01588997319094814
0.018225549114990604
0.04784258691302626
-0.005756195539641226
0.0426267068182617
-0.025711170831843728
-0.10327687927483563
0.00035267196675803917
0.07087840908722008
-0.029740916590186753
0.07363463472261207
-0.08510678567925242
-0.05376871177926981
-0.04610464175149418
0.02115529889244107
0.007761761110337365
0.01856418748911363
-0.035050573940057485
-0.0716762674852917
0.05174883944986594
0.012039213125590975
-0.07315962524250338
-0.035747563736581854
-0.05419565921011882
-0.03287428251199189
0.044510470689895665
-0.0347480126931646
0.03202448153913059
0.04938506393243225
-0.023078772297878827
-0.060858896700119604
-0.04105905135547829
0.07452932972332671
0.045371805260517
0.06857869450466389
-0.06584970670984902
-0.049783949898270216
-0.040265693449911814
0.013705310599204558
0.04675245561716925
-0.019716190347810858
0.07514532179133296
-0.021119130156778097
-0.02859928771434025
0.02517097280149132
-0.03497414720329528
-0.004280245528629776
0.07973313703859464
-0.050461895392493385
0.0026310632609002045
0.012309664512539339
0.061080541532208356
-0.0820501606095101
-0.01283167672163624
-0.004554325898273372
0.039986016567916234
0.005773800012282709
-0.03322304132694126
-0.028055083998373434
0.11739216968076056
0.004836978681912755
0.03430901441732844
0.008010717234117608
-0.05849341537346051
0.013351974540656442
0.013429361571611467
-0.10830992758234315
-0.014166928324792043
0.004122104636073179
0.02271520609706156
0.08516765376004483
0.04594138181678838
-0.003214915607507832
-0.002832241923568823
-0.03764664489524788
-0.0006874216012735016
0.011763702565900582
0.02817394528669939
0.03585876678587473
-0.04908900138058317
0.06084443787159308
0.002607629677356427
-0.09750489965822957
0.02410085072628321
0.04131924368916265
-0.023799957826658457
-0.07031067207745666
-0.021663133717579636
0.004813437597421257
-0.06875928471712384
0.06182932802831466
-0.024225740651709668
-0.022389168807984222
-0.04885042385406111
0.032258918678801166
0.0244445586680433
0.009494225916323956
0.056486320030182516
-0.05654245102269367
-0.006062758453775995
0.13073643207957045
0.07818777508146653
-0.03568390368891034
-0.15027699369749437
-0.005678701480027417
0.010993350452420269
-0.0455552267064356
0.14620424894912132
-0.03721300272070965
-0.051063912188566374
-0.015241705888991822
-0.04619087752610123
0.07799825404175914
0.004735776677512063
-0.01604992821582966
0.024662693871871
0.019326720308779095
0.044274510724962766
-0.085998561966853
0.03361579169451539
-0.04631456911514323
0.031007022923355134
0.04990383351432903
0.035499118511390704
0.5133865339964393
1.0998748306737283
0.5521144301846138
0.1053908304331252
0.036103072270379274
0.01767019064433574
-0.0509780530828087
-0.06630598916819803
0.021641173440196972
0.043913086267955086
-0.09368548158037104
0.006154057228092539
-0.02434950178717038
-0.03623102418923176
-0.059224787660607896
-0.03469771886587801
0.006544718942454267
-0.048619573724882875
-0.0026913464472858154
-0.01038942197061659
0.007630600451094491
-0.0019473467304575787
-0.04005815187911069
0.007703148410080647
-0.029186369280381742
0.0538631243221899
-0.002394506698969818
0.06303097501030382
0.012826413336726239
-0.035617894108448
0.033142471615687195
0.006688290822525699
0.033369999235262154
0.010739717360855591
0.025617849006287677
0.09260969220304884
-0.044544606374653566
-0.017827185181611273
-0.06800892574865734
-0.013074897816704505
0.00023777537999608475
-0.03505645372404815
-0.07629349914428646
0.0010406359640910648
-0.012769625532116906
-0.0016044125556994389
-0.04316239955709423
0.02564548235083085
0.028753115819049286
-0.01838189465714819
-0.0226253877363837
-0.02899329278325158
0.015744706092197032
0.03351372765713064
0.08750097324159432
-0.008487698043487996
0.010342106266325687
-0.007705569746628656
-0.047881134388364964
-0.11554586315287399
0.0670651425403258
0.012857481429091811
0.05600189362599918
0.0347629145772397
-0.08210419366616087
-0.026037917043376414
-0.01932096682649681
0.08588551484877198
0.08876793589583942
0.005859081162322993
0.05851007920458315
0.008760150894167856
0.050705744626344675
-0.01574578337586581
-0.034398160322681726
-0.07281038487616477
0.04830903054831983
0.040195169673196585
0.0012546773925713748
0.027826955020419215
0.034097792312130726
-0.08066775634251769
-0.0583061458581632
-0.12826170707579684
0.1198909376479883
-0.06642780694526382
0.0711969836747808
0.010074981023711058
0.019821760598859272
-0.024756818724131536
0.03227080721574354
-0.025174894266267803
0.06975582950940355
0.029500953862600956
0.08544472690092206
-0.06768174236297317
0.03645254796498315
-0.07024580989638694
0.0309987779576485
0.06143987810961962
0.01791752264239351
0.04029424391349201
0.05009938593215274
0.09878985735935913
0.006934490587522398
0.03025517432121785
0.02785402699555641
0.031124709524750344
0.10644642599538257
0.019232234577127062
-0.04596928242764941
-0.04228091788490271
-0.024501174286121932
0.007354262727404456
-0.07473142354763503
-0.026387450538439935
-0.008619083186300986
-0.05834842936904543
0.01827272660105418
0.06035307786582561
0.09392468932301323
-0.06686533460426441
0.042918917868051104
0.03015032932469763
0.020502187549918043
-0.022752852133482156
0.04537245348777431
-0.12950681084310992
0.03062078755500677
0.04018990545459094
0.014185407181548482
0.08784343431112888
-0.0273278250438021
0.04448573825934811
0.01634585041158983
0.047496316578724884
0.1320429641341628
-0.025371396694249072
0.009464369303872573
0.001522035831518882
0.043868889598273494
-0.021073151824751345
-0.059040611096394635
0.03921664515014847
-0.090965676698147
0.00956936066932644
-0.02462495470610763
0.00039919346455641536
0.013228557798912794
-0.017360105215722427
0.098133943155659
-0.05061602424555124
0.014618739719295058
0.06051985189148808
-0.01802991221155696
-0.030760668799321884
-0.006584767041285186
0.03199691908506225
0.13165553823904705
0.47812520620117793
0.9436688666132589
0.5170903465312311
0.09565411009453474
0.03437871197593335
0.12058181495473717
-0.05742886761806836
-0.004459818147963115
0.13045991948738087
0.07914100364851084
-0.03782636283813798
-0.03383583782073779
0.02007311387011685
-0.035287102238898
0.01766462020672879
0.09638744272689194
0.05243291739636513
0.034658391054139835
-0.06358817267486269
0.017491534213098164
0.04934026028598115
0.05102893586869707
0.028035105747017564
-0.03153483897742401
0.01483106232950675
-0.01830073709929682
-0.0008574774950501574
-0.0012370580156008165
0.05186015495314712
0.012338583936937611
-0.002708744662194411
-0.02841961539743449
-0.056837007774394155
0.04843605354858463
0.07308877291079519
-0.01819127316205975
0.026484076718981783
0.008874744557546884
0.05782336416622285
0.045268288252898005
0.015050298291615999
-0.10232262297665924
-0.04266241352337601
-0.018482205826875316
0.05376243827516715
0.007066110197287895
-0.0003427109822537966
-0.004645997795428266
0.017958334878651585
0.06882967947999938
-0.026020014183530928
-0.045578173197654774
-0.02560558174105204
0.11336190412869798
-0.03647577086049535
0.012448853558291903
0.021372767509275428
-0.043808826639621455
0.02513337306394079
-0.004101953298972935
-0.020465302187583887
-0.02383895181730775
0.0518456189293886
-0.0068639901201793035
-0.07566294901245138
-0.038282459146266115
-0.06756483848685656
-0.017801641057153973
-0.019238575172769275
-0.02427769970593173
0.029932009178727032
-0.005726566776386503
-0.026745144997984138
-0.00951846614974248
-0.09312407872514333
-0.03562505793523462
-0.016137264243537116
0.05448324194255101
0.07285977375464646
-0.08307931466773025
-0.020360024521933015
0.017599138411321734
0.009450659997308966
-0.012384025097649418
0.06978146004253916
0.026785157644743277
0.03969026437514732
0.031142086051132813
0.10767436539800285
-0.1189239986162793
0.04126446446975011
0.017151485541875382
-0.008612427000489848
0.01760873193648865
-0.020787460805956837
0.012289698713381151
0.06868596074306578
-0.028142756156349653
0.03413269187638597
0.07874856662092522
0.005918268625329459
0.03983083360042423
-0.06578448153943461
0.04080843825854072
-0.03547334181861251
0.02210268976975968
-0.02125355514609375
-0.0028816632086218065
-0.040422146614104114
0.005591199123167964
0.007104675449801859
0.015006553768730564
-0.01401336215655926
0.013102965679576193
0.00905949761658288
-0.05732728539216227
0.04082356905260573
-0.054131101972276156
0.15168181216413332
0.036048198245743256
-0.010728766884826739
-0.08286372679490625
0.013961447218116747
-0.024181690180716562
-0.015711424962567302
0.007132365383804371
-0.04756376647001343
0.03459611144870871
-0.050897745715324696
-0.025272113321977593
-0.006044499837839319
-0.00880052006688111
0.014521715953968048
0.038081079471086986
0.1076649669968536
0.004723131617577507
-0.02501409729666102
-0.0489101598873748
0.05721862250099509
-0.01842683240215683
-0.0909634106212801
0.04400526464910069
-0.047531779182957846
0.06819964717429532
-0.05041529924574985
0.0817435980488151
-0.06721513739120467
0.06827892305564072
0.06752063321778479
0.04548864784742283
-0.03789009751969391
0.028606606031023076
0.039413798913850565
-0.06307419241215087
0.04171110435546118
-0.026688865202805768
0.05784523817036841
0.4906484773571186
0.9505995453488141
0.45230204725710815
0.05999434396168005
0.023615423345026934
-0.021526448346428955
0.004489145934757409
0.013454932611649914
0.028928007122189327
-0.006235358325130165
0.1376487332479804
0.05412926378718491
-0.05428993095770365
0.025976044198138842
0.09852626812779769
-0.06936873429781805
-0.08985534741672403
0.010921891624374314
0.019383023273574468
0.08046291215244378
0.07521302103891711
-0.07579543443909104
-0.10116136266511729
0.05351734942254686
0.07578227974079918
0.009310410864651146
-0.0037100368067740476
0.03754161245368945
-0.06342380605763137
0.08014058926398665
-0.019290498535353303
0.05514317275814839
-0.011036787768811762
-0.11011602448142901
0.011326221790348373
-0.02613320974260673
-0.0771385597663214
-0.12273201188283943
0.03205473787577633
-0.08632343697719741
0.02578558349676155
-0.0222106655977112
-0.04898203895387405
0.00502432972929822
-0.002598059877574114
0.006788971939737901
0.039392233526068694
0.06344436365575527
0.09371639568517733
-0.04415089430382255
0.029173315950307546
-0.018767832350412635
-0.07808013594405028
-0.11404121459813672
-0.042159002084970996
-0.045038843059207884
-0.08835006519401958
-0.03876331615857217
0.045150328781119714
-0.03463615458638462
-0.033434308393385154
0.0015386178068367315
-0.053184333981539
0.035941804669422615
-0.04016141834554939
-0.038280144744888916
-0.045829261697030055
0.024110287479348833
-0.0501022594739782
0.015762127765590404
-0.042542653850647
-0.0985198866208642
-0.06460200133359505
-0.05690744753268721
0.04432195651945908
0.020166345978863017
0.023751955601952174
0.06689517013533275
-0.027382681394706055
-0.07119599543738434
0.029462580054121248
-0.03858522581402792
0.002481979238814609
0.031104224916781383
0.006943822975504938
-0.0013241676990751196
-0.05972145309456842
0.042969947950726915
0.029794262246289234
0.023819256324404903
0.03248988514319045
0.026155001168249117
0.035220594266094966
0.08170813439336103
0.04064637002213228
-0.005265670369342192
-0.06225450612535377
0.03877319079623226
-0.018727669512328453
0.10840006480061007
-0.033194257268282554
0.03862830925686544
0.030634412147276597
0.04619284834386535
-0.0761487480692694
0.0035577122753215583
-0.0024471179514098298
-0.03423183158432319
0.029909124235998036
-0.05348648968016051
0.03320134260980828
0.0019545756551819097
0.07544287234222423
-0.043648970639589425
-0.0073793079067018515
-0.028491657406889387
0.05830548869903072
0.101097257018197
0.027349089171522553
-0.13349034072004004
-0.04063923371062234
0.017913440644653292
-0.009617644562686262
-0.10487526478594532
-0.043010076030132044
-0.025447814847038897
0.0859564146103331
-0.036275372457002374
0.011636259335949545
0.036069433832438456
-0.0642335998117172
-0.020889724930194427
-0.04043636542368055
0.0013891910132726162
-0.04365491332383129
0.030561737943794444
-0.03744696713731709
-0.007897328971066703
-0.059941375999299655
-0.08819013720636346
-0.020869507275463765
0.03508581404645668
0.02088218493895856
-0.030878192604372086
-0.013880989746155332
-0.01831109544270919
-0.05000718840251805
0.04746073755257252
0.04268803467416245
0.05009786214756826
-0.012047190033959147
-0.07224110541459494
-0.0004200437048714979
0.0803982956610231
0.49819689755094315
0.9862252600255322
0.5670650502156221
-0.022593673191347793
0.014643729164694362
0.036958793775529006
-0.012635776685229859
0.037484654807885584
-0.00905057631624311
0.041912449116187696
0.01903964644942621
-0.024099314176363063
-0.006443617506254303
0.07469696206320596
-0.08110137096203793
-0.0836448337156308
0.0345791932908698
0.11064649116538001
-0.02905102406826352
0.017178743545377264
0.060602376627410685
-0.058906821758785755
-0.022058681186578246
0.0835167141102253
0.007108083801643135
0.025174001246331835
0.07206085946584508
0.020310112805709338
0.05642015665103395
-0.03141475363881196
-0.010651704908729983
0.007020697981491287
0.012049943436442985
-0.033961234154013864
-0.021262035165283348
0.07389514717872762
0.009262821976800789
-0.07065952749145199
0.014095910020654452
0.03112766088986243
0.041070997086103234
0.022819347494256372
-0.012684463952592035
-0.035658847030146816
-0.047649069875712054
0.0330802973395694
-0.09418654918105598
0.03561358574990531
-0.07549273036237922
-0.10334243285189193
0.02190581841527306
0.05789521779226017
-0.03741777725575981
-0.0011749958502819062
-0.014191469466985553
0.08256017661110644
-0.03630169119118309
-0.02226837472985616
0.07289815248303769
0.020098660071225675
-0.08819961998933425
0.06522668401457322
-0.024070234320846644
0.07597271850352046
0.0016848781108558999
-0.04645448801249723
-0.006236723178477448
-0.0771957157282492
-0.014212323726279959
0.04641915738093741
-0.03823848238680624
0.0607574812958408
-0.027559168612504032
0.02492798769265619
0.0561258913273537
0.0785952783058101
0.09424067951963398
0.047852970069755855
-0.006498751654185001
-0.0074759889571852384
-0.040551164928726624
0.05419388107412374
0.023712865501266826
-0.0495482767523079
0.009650606541052657
-0.04116173694238501
-0.06845711043673995
-0.00878920994554353
0.05360148324238907
-0.048691388461255036
0.02273451334283942
0.06913675468481166
-0.07821187295714724
-0.005867082343461112
0.015211106829680743
-0.040680915907546536
0.026338771731578316
-0.006850907802886307
0.02948738605289238
0.0031450457384936143
0.047658244412864065
0.05040879134941614
-0.0017399842325136882
0.0044444880255827815
-0.10714501308928442
-0.02422755953705933
-0.07159906761418296
-0.0022608619886024714
-0.07946096041882263
0.0025568248879899655
-0.012385554059448772
-0.06448947268008078
0.02157211961714464
-0.08721593639491035
0.000822394337163861
0.04135789918354245
-0.06334771275261018
0.05284789795094902
-0.018291784023688005
0.03945257743323303
-0.000594550922661698
0.09980555743007914
-0.0689274228701634
-0.10214665260670625
-0.03971722662715025
0.0013488887282809142
-0.022078257755480463
0.02623415180871926
-0.00929602484752017
0.008397223219289623
-0.002108893600706084
-0.06372992091641959
-0.005483212840865382
0.06011683348191582
0.05325787952053288
0.009371886923727731
0.03653103551855724
0.0366047739325403
0.08438903403306962
0.019500789393452032
0.01330375036116403
0.04694538292336997
0.011271491474131534
0.017090732527546816
0.03048668271634096
0.03321288472673358
-0.008321513998651279
0.06481317076617282
0.03726789028018772
-0.04003946951825189
0.010725956910078497
-0.058422354280947233
0.03290538483614645
-0.02733949095614903
-0.00863476494753498
-0.03513534447597303
0.058513049288272084
0.005211014614399896
0.02111564653447092
0.0620732020183003
0.53504155860372
0.9795830926324512
0.47772275975565603
0.0746327166593117
0.001881201472044791
0.021569887490400456
-0.0010956450088032087
0.036409987481313986
0.11664018855543078
-0.018946517388948203
0.014159637002119889
0.055108374841248836
0.05563889239675085
0.0788346968206699
-0.05330008771125466
0.0150719955115429
0.014497645314489119
0.015319995736656667
-0.055966989544098955
0.056562581160600846
-0.07260003552138695
-0.0379219914925848
-0.06557505251703229
-0.04400824589293911
0.06656634755008807
0.01090907495906886
-0.035754621125660115
0.03093389417385411
-0.0015933785167787835
-0.024146289015991734
0.010265761718569529
-0.020020412475788844
-0.019576791061873405
-0.08839534443545506
-0.054326865745947694
0.020905303460069892
-0.027996877132072218
0.03199137380705439
-0.07125434038308753
0.08546929196278674
0.10021590768898599
-0.018993788840202558
0.08632920750213458
-0.09191180425925004
0.026237007341344105
-0.08278746675242973
-0.052728962632213966
-0.03260187466735782
-0.007107885934964466
0.009970995641743523
-0.08400916020188004
0.027300251923981212
0.014097588277241802
-0.0004662031075361832
-0.05382755236017113
0.005252118729335993
-0.05165794667902055
-0.07639329461098754
-0.007733887739412842
-0.04208631081733646
0.03748257165487503
0.033067922203847064
0.01157253010030903
0.03333466518521373
0.034400386125530855
-0.049592284206379865
0.01635844582101933
-0.014195574069018857
0.07736356697865998
0.10505413197256086
0.030565011310784786
0.03652996183782706
-0.04314860198140225
0.015003696466287634
-0.024298625907166596
-0.08591008733441358
0.0008085332094418355
-0.053504190729630696
-0.05925667160846757
0.006843394025866859
-0.004144848534789546
-0.07088368709661319
0.045514434656795416
0.020104262303286713
0.06048337347172971
0.02662363645736593
-0.02920435521016872
0.002074988515005197
-0.021308171026140355
-0.010851544343735763
-0.01185517058933344
0.03839900926647827
-0.022364415360307165
-0.024141049347845438
0.08278625766192037
-0.010145106525946844
-0.023388273930525744
0.0620976612036002
-0.004527681869346943
-0.025716660229373606
0.05745588895282447
-0.004371808326871302
0.006047415356211673
-0.042843468382452427
0.026322980092251633
0.04751752686052034
0.0006525288911517264
0.04712485509695408
-0.01475266902158328
0.02800388541541999
-0.15711099338646162
-0.02918997472570138
-0.01726045888479352
-0.007826458917515076
0.11203380768515503
-0.04623462321899394
-0.016785113710296753
0.004990796491568096
0.07963477138834762
-0.0050841698792850115
0.035557146525305325
0.011844932518120662
0.07924441906366382
0.08172818164157179
0.09491079836265384
-0.1273859494928383
-0.02240138887901401
0.07028529575616221
-0.09025269076610948
-0.046040016971222536
0.02640540340641717
-0.07514019902662983
0.001095469995868053
0.048729253260205385
0.017544511577744278
0.05394682986043814
-0.045198889747138905
-0.0281149301099487
0.024966345552373682
-0.00961459953228513
0.01594105058836288
-0.0010536923832634157
-0.06088209356712493
0.06780597949071067
-0.015641053317120235
-0.12148710334296393
0.023783376145455275
-0.0036784182770659064
0.07866962164664665
-0.08227391617523347
-0.012937189925194876
-0.0073391719318125735
-0.06360933544234428
0.06672071876397982
0.14955514814056955
0.5305984848229365
0.995462853146364
0.48733152852744516
0.09153298184709979
-0.03253847990041372
-0.03974628752758552
-0.03601089344534772
-0.04403626586423609
-0.018296346940927306
-0.01981399680045505
0.06600956304493306
0.009649288353593487
-0.06959520305198146
0.0690242938463082
-0.0234163247767597
0.042520895651401075
-0.049049085588458996
0.015054460800879538
0.005231671924880834
-0.0387264856512394
0.03464354951127276
-0.04232745842107032
0.01101150913770875
-0.009734780570861492
0.004105389234728016
-0.02111543680688356
0.005711483091186648
0.014936767200566095
0.0050670909261396075
0.10010903485892189
0.015100937870508247
-0.05953333511027629
-0.04601965995915008
-0.0020090785543296127
0.056028605858891495
-0.041694116367579234
0.01865364762476011
-0.00649312314935978
0.05746847352587864
-0.07382421814028405
0.05513663533876637
0.04039915826952348
-0.018062361246254252
0.017575944085798205
-0.0018291664060346867
0.00818614598951111
-0.008367138915291117
-0.004055313997879231
-0.029732862161599302
0.0328593474661694
0.06897308341808973
-0.0037588573920615065
-0.001834981281529867
-0.059617104565231796
0.10601940126138804
0.05820909981607754
0.11076652234237623
0.04257769910258423
-0.010681325771171259
-0.009767045040376059
0.15017209282243377
0.004064580057015052
0.10009850917525678
-0.020668482357955414
-0.007721716890955997
-0.007097303588922134
-0.027424348983593208
-0.06751208020352299
0.003308239637518089
-0.01874945930185942
-0.05069882412442466
0.05405588265760867
-0.0037872199794805545
0.010654015134852535
0.010797141267455823
-0.10769177774634775
0.008538279735708455
0.009891466669481784
-0.00896691585319213
-0.07875492360205105
0.003990220756169861
-0.05096679502178053
0.023660978787385933
-0.023762147494948815
-0.008028110586482656
-0.02038134383596638
-0.04618446195443224
0.037251035311353535
0.0820882764488598
-0.06508295630600018
0.007613401912712214
-0.18138841558545205
0.06603200881234299
0.0018858627666339164
-0.030953807942874747
-0.011290483246431136
0.11976421839552093
0.0941627714694907
0.06127045113333455
-0.09011944927337659
-0.013987813544213424
-0.053899588115956645
0.045074079846140896
-0.06375466055310688
-0.0057062260884873876
0.019971507565993054
-0.0007942791998769784
-0.05224439221890657
-0.014540992636388023
0.019824866656074563
0.0903559689352937
-0.019158899783248928
0.08336497229091948
-0.010664562209429613
0.03991848044199804
0.011504620782799941
0.0252144398694862
0.007096043460295876
-0.05637245790885536
-0.0906533091362263
0.02560967035193957
-0.00811993723658383
0.02230433127641078
0.11301451317963163
-0.009444052444538456
0.04027429309915018
-0.05406934837688945
-0.008824328033140557
-0.038788601288560834
-0.046320926814673286
0.11368829991510661
-0.018676529717750884
-0.09363456336554105
-0.015654579354248053
0.044835016414199104
0.013170063823044293
-0.03819110391772176
0.07262408377378324
-0.027105245160184057
0.01028237129148325
0.0656162790829214
0.028851420528618357
-0.025630804573665802
0.049940563096992206
0.03872627575269346
0.004069503829214625
0.011409999273176473
-0.00036310382829182796
0.014496889084824613
0.05703069641098581
0.0742835676244299
0.004506730311535946
-0.09532595905542436
-0.01049381641924274
0.09605927868407198
-0.08174946267030322
0.059440380255277855
0.4727669552581827
0.9560218716326458
0.48683148524323344
0.10111133782762946
0.03242834800001892
-0.03434001999843552
0.009361014039466485
-0.02520120763543139
0.03605718108733707
-0.06128547524584932
0.0026870715113905073
0.0482380979696451
-0.00779213831598842
-0.03364469413541411
-0.019922378839385354
0.0075164988341891855
-0.00344283240248241
-0.08596194991324381
-0.06635849303984002
-0.010590099010959156
-0.013816992783481084
-0.022296882315900615
-0.075820591949602
-0.08564543217206741
-0.017531379946657474
0.005904873441393945
-0.049420971856590556
-0.06939140447105194
-0.02455298611312942
0.057492750878306534
0.03524958371594107
0.05237378100809151
-0.05905629676550052
0.0714092567781377
0.03346525670257736
-0.05569766133516521
-0.00996830506330789
0.03353099295096631
0.01927847620225428
-0.06555428788451556
-0.050256901509004505
-0.017147027336612327
-0.03132911760964079
0.06529440795536338
0.05116306545593457
0.0076595972981787904
0.03361989353708786
-0.12783776658311446
-0.006751130261680197
-0.030061576549807508
0.00268349169307471
0.03078006528171641
-0.016421736097339015
0.11005249365969967
-0.03570631014806098
-0.0014274368676417486
0.0380136306069083
-0.08427410756153728
0.03380404857922675
0.09483734561487285
0.004602942426082505
-0.05846885076829851
0.1169181282068807
-0.023814314743248605
-0.04864738767492113
0.049653413696338446
0.09150357607363413
0.06431493259113084
-0.10899241271600264
0.1471544824657929
-0.039454735435193566
-0.07975316774883609
-0.1311661038483056
0.057917510872849534
0.007360452728407768
-0.0028075694118852076
-0.03708424483581107
-0.012878569302729776
0.061417456329162484
-0.013167256485275431
0.08390147267218129
0.04238489877045621
-0.11586654956323794
-0.028777133756012735
0.009809372985294206
0.10858078469635356
-0.07733173664583301
0.011693606710876863
0.02621444785330129
0.01432632345203036
-0.028428735272257973
-0.004399579699985931
-0.02394153352059395
0.017356878421781335
-0.01838347443314795
-0.02342217756013807
0.06325019632281381
-0.03790449519917524
-0.06910162525835943
-0.03363949853572908
0.11047954276286649
0.08211582665459473
-0.1194468805640935
-0.021667952001831445
0.02573419032304293
0.01814456013217822
0.02511662488837132
-0.02458514609253977
0.07963331292614538
-0.030738245553925306
0.02945540005603403
-0.1086352611519021
-0.00944768780880789
0.012996286871963886
-0.046744682158582115
-0.05436717186411695
0.034305825534075116
-0.07198467285593707
-0.02174360049853954
-0.0010056145921810392
0.004212180815100562
0.01867548462372901
0.02292896191062441
-0.0013735861622855422
0.01808221644455148
0.01483164856698868
0.051500114059962146
0.026782151883885164
0.010465609120588968
-0.028289949538196114
-0.013372903047708452
0.043493221707957226
0.022317214568177753
-0.11228255462902326
0.00035110312402732293
-0.04250023102634225
-0.0445087833019015
-0.0690819429007707
0.12767829941110995
-0.022734205791766365
-0.02180760223452057
0.10245635376127989
0.041015202463655864
0.0024809774332681463
0.004455526792143397
-0.022024296748101625
-0.03189812658209441
-0.03899538293445863
-0.07575712089304733
-0.04534912952369624
0.09934293490747184
-0.05146289914585439
0.04192378311137742
-0.013049371369583063
0.14301186535478994
0.5551837116322974
0.9511674033485648
0.5296583061862766
0.11849809312347018
-0.12458212081452374
-0.055416149511040236
-0.04178810231984866
0.0531575942144384
-0.07495802997691836
0.08548179299645521
-0.011207581702011879
-0.09819456457487584
-0.024478092344041746
0.0008105726275481396
0.01312048020120952
0.11521140664733989
0.035726556318003824
-0.07611516950602706
-0.10845126205668226
0.024413028910956123
-0.06527561916932198
-0.006921157523039683
-0.007461867490989468
0.03877154977693559
-0.02579243818903354
-0.046239684669097995
-0.11133477893121624
0.05649901907837801
-0.04204603846566378
-0.01358098447257197
0.028306027568154746
0.035681637917999914
0.026933590874543667
0.05478793176670241
-0.008931314958465594
0.0010146817966164966
0.04203926596309465
0.05257772894217149
-0.02913034513681946
-0.03872638784386442
0.07753315922290921
0.03013097046092937
0.024707603805357657
0.026210595321638032
0.06901855105411853
0.0023512819961940233
0.01766335661329865
0.004251531883018246
-0.04846131014576637
0.03333771780681648
-0.023493472423719408
0.0037759874841739594
0.10411521473103923
0.08961567285347488
0.06756578704903322
0.02126160646740829
-0.055659883135674985
-0.0025965428884162007
0.05333471005857496
0.040911939686282324
-0.0010421899778134973
-0.02337504851522954
0.010716563418930812
-0.016202946754882427
0.01727134378139571
-0.031923973360377216
0.06756510174139917
0.12565044872205627
-0.01913600884437549
-0.0006449434370618306
-0.10954144637457015
-0.051166555689476416
0.04354132366573609
-0.03937750962880698
-0.05773157895732365
-0.017044840007922005
-0.05279132318878596
-0.010560592369786435
-0.01702480802034229
-0.010228501351512148
-0.009930523404539551
-0.05848686494240762
0.0056018923988117
0.08802464355289241
-0.038030961091685335
0.06434560339766657
-0.05969787504095051
0.015814176847023624
-0.024585041051085513
-0.015792208523176036
-0.02024516694584344
0.049052038148652596
0.09223210458281111
0.06229166602296496
-0.1079611174656495
0.0008340137059378984
-0.06620465416597097
-0.0491659372642602
-0.0021806207118650147
0.059886990897910664
-0.03415705967855924
0.04696513902854407
-0.005395262433427128
-0.002486081829576584
0.0031582188975224296
0.05311376998270311
0.10355058141848084
-0.02397383106521653
-0.05141765982104225
-0.014419880235924854
-0.05926915576506049
-0.03436721263325472
-0.08760839417710102
0.06424736793641377
-0.0003500083927761704
0.04299990627750177
-0.03851037959026081
0.06376493893968553
0.005265568560165119
0.0023003861800005476
0.0686792661410782
-0.04913130531665057
-0.006245138997642265
0.061087579133335825
-0.05795987363433942
0.021179534460868808
0.013805194605314909
0.0225862266971219
-0.001219518726137346
-0.030090604638291753
0.0691313891383383
0.020120845041018062
-0.07352893921014007
0.06086612389632826
0.033594598879441696
0.010270425631936607
0.02141222381246287
0.036128489282292085
0.01627435672054364
-0.09160535498720271
0.02400169444497567
-0.051548131210119454
0.08546475902212433
0.03007458303046114
0.051728643920349066
0.052818790909387514
0.0204274666542298
0.00936532774019888
0.05088701306206239
-0.0203747013774463
-0.09585682112019168
-0.04723567757095615
-0.04603262379566859
-0.011401713829602082
0.016534738038429204
-0.11748018162404389
0.01104069217736782
0.04251225617243394
0.04919880193274704
0.07843526322622424
0.09457103012595731
0.5256470515370637
0.9765252836130345
0.43014306284976794
0.08989192110762341
-0.09675107513413259
0.04307428617417312
0.010014362690542978
-0.09678502346866898
-0.03999105622649034
-0.044861387942986344
-0.10218724176674782
0.05571408444457915
-0.060408578489677435
0.07276404962612791
-0.013265225564872515
-0.0068551920551107
0.007209683030579031
-0.05827348808002857
-0.025293642777282074
-0.051473941536465596
0.019297903572076607
0.01784691936890956
0.0034366496553053395
-0.030761869241856112
0.030334044788554476
0.07211287237222543
0.07223065983051377
-0.03611854187820707
0.10672879203841967
-0.025599275430036164
-0.0003457326621939919
-0.06695466122160003
0.0378455294013661
-0.10144644026209529
-0.012663498687139419
0.031258432028263575
0.020269393035998354
0.01917420183187762
0.00785764999666862
-0.01762186915702713
0.05009318515120768
-0.02298964353071797
-0.03857730035603838
0.05088758310835656
0.024674326442012166
0.08206111555580164
-0.04510401204361094
0.059938282057782656
0.057627706867994836
-0.02819335913423586
-0.10000753823023228
0.07174032020840462
0.021496108176916197
-0.04460260343447427
-0.005849077639720517
0.03853436804324114
0.048031801645304385
-0.10242156814315301
0.15926397432984155
0.048685665823177515
-0.024190142027676085
0.034325035555723686
0.0627174598265559
0.01021100794290313
-0.0342676789448597
-0.07106521174741148
0.046974233123122495
-0.05853485961610527
0.011823895341606022
-0.012521356525077274
0.05959794043391453
0.029811225052023584
-0.02880864091498024
-0.032617511978699144
0.0050513142757024525
0.08826966030456643
0.03823438013085814
0.0016300557875966537
0.03372336287364065
0.0011466804986140031
0.009274812275370647
0.026871617383276064
0.045067947665256625
-0.013921205807153232
-0.011349782016604817
-0.048734127654106806
-0.1102793846110133
-0.06026036686862263
-0.03765287150692664
0.0336875073020834
0.05465779940656024
0.02567509992669781
0.056618640658675806
0.006092405211361136
-0.0672725272276125
-0.08413411516072948
-0.06201819323321409
-0.03315328245169469
-0.062028863649543645
-0.03055731647856227
0.00784140584134226
0.06238987085732235
-0.001436385958590887
-0.08888944380919664
-0.04283010845059211
-0.0918463468532192
-0.06788362055278387
-0.0562018146219206
0.04769543334716237
-0.013599867655849588
0.025075749385099197
-0.13342085984045113
-0.07317459762426934
-0.026092707898037068
-0.06365868833374692
-0.10055686842988765
-0.040543601814577584
-0.009620399837686859
-0.029187914427551954
-0.011981633931204948
-0.04446904692339555
0.05311133129850579
-0.028785425668762427
-0.032718912211742196
0.025540970391033986
0.040785917450830406
-0.013834192571822019
0.01958379430677286
0.022469157219615406
-0.04955283908245617
0.03674595282212843
0.013219390603595074
0.04394247737966332
0.02119453700219161
0.007386243031716757
0.054097055263824016
-0.034095935376268025
-0.0834900852257381
-0.05920073249111353
0.011045091028941412
0.02698092424223196
0.028639533663616008
-0.025578696370817968
0.06395943084292821
-0.002289562723261971
-0.0031274345720831327
0.04472898868987149
-0.09782891524764024
0.014498119212468416
-0.07305620754057718
0.005080590749269102
0.11163363029391188
-0.06026815989842125
-0.01689585071771666
-0.06338033023374598
0.01790437458489556
-0.0003067358891309241
0.40430683378613574
0.9761911075681904
0.538740652544021
0.08281650171208702
-0.07229917442828573
0.060869666082806986
0.0329473497265263
0.0033935359410025194
0.004219419081436114
0.10841220693456184
0.09154166663673252
0.039930238570020905
-0.005723376561468016
0.005166567196604866
-0.015652472913903932
0.034120883068546735
0.01135386683233822
-0.004328717351542884
0.035159925450176786
0.07042104363930317
-0.044020229287783624
-0.027188951544178577
-0.10699217541796052
0.06261975528221872
-0.0313059427222188
-0.12166956192771046
-0.014585308207864592
-0.04386955844127938
-0.03979314256357559
0.02056291447738684
0.08362995024706324
0.008937197573587392
-0.03421237971700635
-0.006718415496193575
0.033398751432194694
-0.0012113410099727363
0.08983479676140159
0.057466511661360666
-0.024379599270977048
-0.035114767514153634
0.008878135902318349
0.030994855112907935
0.04224226660438514
-0.0668605834233729
0.06679513850506352
0.0743837851165902
0.013870771498729154
0.03433771488668095
0.01712697225002972
0.039012980046285256
-0.10302146047967578
0.003214448069455865
0.030950450762707346
0.043414251494412026
-0.0329165594950573
-0.06574996471471238
-0.05700885292411241
-0.03807277011901543
0.04275217617858821
0.06588853845679526
-0.006134081873410286
-0.08320181291304697
-0.056865001960695355
-0.0018078420506443258
-0.07225663783527238
-0.02887585416335895
-0.03215051779985799
-0.04074420788948249
-0.055743395444320776
-0.02037885435591986
-0.06693362879083152
-0.0014034837760657237
-0.009546936415522478
-0.023336824001836138
0.03869189490057084
0.011222376549504538
-0.022023377093693154
0.042792513937528955
0.013547750915701677
-0.008157242748615587
-0.08398511290132708
0.016030460435051238
-0.01319176026378432
-0.030365829979319928
-0.06894290408042132
0.03649456867094813
0.017740761562540754
-0.08187712963170818
0.008127709797071935
0.027971894965243813
0.07153819834861543
-0.002513075976110444
0.0159530124122895
0.009165303256001399
-0.005239657627228388
0.08854367806925871
-0.033530129237957944
0.004707156006153427
0.042519577178505
0.034725590158880826
-0.015429172941760404
0.020181906001379805
0.09183379389463703
0.012723792021039657
-0.013607742233677595
-0.055275194725501645
-0.12305873006923417
-0.005177489640003279
-0.01914421719964195
-0.06609484522816626
-0.01043564869167362
0.045291603368074806
-0.01761266547460423
-0.041031070695570396
-0.024235741398397667
0.025531398955988206
-0.08826305447746406
-0.03607335461775954
-0.03396285066665692
-0.05774102219313
0.013106719462818862
-0.022468053662129416
-0.0812175030850713
0.036283086378822466
-0.004598695835600646
0.045957547772869256
-0.04447942924160735
-0.02676568287734107
-0.10084426340692887
0.07379630159580612
0.0013200760721363812
0.0238809671352654
-0.03902070265659849
-0.020187982821730815
-0.014754358387628612
0.024626118233524084
0.03711232532014163
0.02434160436066075
0.03673488310123151
0.0066922828242385254
0.06964017407936327
0.049344584576831586
-0.03194195626062137
0.03031905309329594
0.08944717042137108
0.017028147164930063
-0.051822869061617705
0.0227435112266001
-0.0437578978990575
-0.05185903021397014
-0.01710058855717837
0.010236891595490311
0.027246050249709643
0.06373144411574655
-0.06258601122635658
-0.027924527698445358
0.08245328037216439
0.5011143712168811
0.9881278884914731
0.501257603262731
0.11596574884971664
0.08222061166187161
0.05545921902442167
-0.08868301240590469
-0.011965181357835489
-0.06996423701500858
0.01551828557229108
-0.0015102182623375848
-0.10618413952088282
-0.002408809552894678
0.11387325865262438
0.0036204882515780087
0.04092295276052524
0.015311037412041621
0.12714197909752153
0.013468100569158795
-0.014024265088367719
0.006619269631706131
-0.049400331778787276
0.01413055693066647
-0.04055373923207189
-0.060553092076248274
-0.032189828565676114
0.03029027169859801
-0.004896887986526163
0.012017802495829295
0.004546601352578871
-0.0907314556571299
-0.06301579160836655
0.02316110955882278
0.0882218065094664
0.017896949445612525
-0.039829630097300346
-0.017504053394168145
0.13007045240989398
0.01021545779089844
0.05817791577683315
-0.01771751283805124
0.05087850545236283
0.00495622187033354
0.014118759631992961
-0.00822306657879081
-0.06991691202604763
0.0643116604056988
0.028026534274953975
0.08411158279951836
-0.018805091178615983
0.003504019105613605
-0.01905335358347498
0.040274577162353255
0.024376595552736403
-0.009456793671318445
0.04662498344091409
-0.10592886027104567
0.026162764948586756
0.06558175895808842
0.055159256567706344
-0.014504097815998221
0.0008027649595816495
0.057623287301088316
0.07983800917101139
-0.07481594181442695
0.03924542492048795
-0.012644608039452575
0.02442239662679984
-0.022459465411097154
0.043439072148165364
-0.024943615022768522
0.013339917503412627
0.06023675681971596
-0.03134998151274042
0.011889307708461404
0.0027474137614471833
-0.04135390255236951
-0.05099757402832873
-0.03253718793951503
-0.009666119466783845
-0.0025160691708339855
-0.04968468948390625
0.03811283635617541
-0.04016765925728184
0.07993050527800591
0.055146761013089234
-0.009251312983562325
-0.013829118142058684
-0.022365726255313374
-0.011591755756069695
0.0464824026317903
-0.02255683067009846
0.023063286210903762
-0.058179278122641634
-0.012397895449677456
0.013272497726372066
-0.06550031089400477
0.04556253248092732
-0.022303409448032666
-0.025401847455073262
-0.02943086909916986
-0.048415620060345325
0.03851044471594458
0.10841390872347466
0.04231179428004189
0.042597333013527666
-0.0472597691814913
0.011553148269953975
0.015743239287638926
-0.06803583126558874
-0.0669731643661979
0.010172638645846227
-0.03811403817678696
-0.009690944932700205
0.015692771164961383
-0.009885318121886363
-0.003332971193974528
-0.03926753688404891
0.057058873181611874
-0.001255548158367782
-0.06686555530613716
0.020938912304153845
0.026067949094385062
-0.018166030208049327
-0.05273663277217902
0.03744490493238866
0.03525235244954525
-0.06222626100482819
-0.019926332600167084
-0.06146923742913038
-0.008502706912260056
0.02575449016641856
-0.07872553782512445
-0.028240865702177806
-0.054838312520372405
-0.03298537853916366
0.011490577705777369
0.07152169396929318
0.009135865860747706
-0.019985459581884184
0.08979013060454166
0.039447723909820924
-0.10723720810919767
0.04143109609354746
-0.046404029133415625
-0.09377320919518178
-0.006484700288511523
0.010196243586221178
-2.2869764982666596e-05
-0.04247271681998985
0.06932724173944031
0.052470349406934416
0.023485354434190846
0.0006570579791143507
0.11565638553926319
0.5600126049680845
1.0569864235776505
0.5899460449666798
0.07609131422243282
0.025899419402982456
-0.022438683364728776
0.030763728888135545
-0.01618752174248742
0.04374113577469721
0.0032322578075647136
-0.01578579246741576
0.02955218266464073
0.023219406295158236
0.10069269626423
0.027966472282183658
0.055550875291821344
-0.02830202657670898
0.026756364876640855
-0.0010636503283116307
-0.01887884005372426
-0.0037723953170911715
0.061456844435755636
0.006309291761865475
-0.04391233720691222
-0.03632473259207194
-0.0598232657143725
-0.01065250007715289
-0.016883872926098286
0.07766903131245259
-0.04037178372896491
0.06510579341901084
-0.05936915107714011
-0.02105566083784079
-0.03753377584364126
0.11435596759341078
-0.004695854066893577
0.09668586534642197
-0.10330145097940768
0.025913823105407987
0.025735641155049605
-0.02417186634663071
0.04764624611849117
-0.0024018181831857045
-0.031215300058497306
0.024153998307248348
-0.04186951661269945
-0.03268628815754059
0.017558376359568122
-0.11849598634424635
0.055844902837641354
0.08317941114787851
-0.005681762584426451
0.08119683509366377
-0.0008790326350910261
0.0021267103426104265
0.04279428393760739
-0.01228976436344434
0.03826690563687306
0.07277015845750077
0.06629684155182018
0.03646881655627928
-0.025129954966415815
0.046356331195829936
0.05368996986302069
-0.014414737217330921
0.003961083673232956
0.0008705323999049603
-0.04097343260688437
0.018172349528549056
0.054229384421995756
0.02577741546821154
0.039379483322603964
-0.024709546063623668
-0.10327627837691214
-4.2698426439136895e-05
-0.004547306143276181
-0.015376399520164003
-0.07491957566115466
-0.0158416123140489
-0.031638634069989596
0.013533438069392901
-0.05366901302451667
0.060355786109888135
-0.02114454789146216
-0.04453757390983492
-0.05100340951683603
0.029190233308657595
-0.020809131244073974
-0.0654459739758327
-0.019119241752791435
0.04951855904433273
0.015668166702824688
-0.004963416203443546
0.0623517418035067
0.03194197562798675
-0.08290560319962136
0.05667721777762466
0.01090514986498497
-0.0749010063924103
-0.020017549805228498
0.0556636278540808
0.09198140215558596
-0.033363926166693265
-0.056431519145188305
-0.0009399685030124849
-0.022260859887340403
0.03908416841928301
0.05808701684945758
-0.03527241123140123
0.020780685392341593
0.06603830502168422
0.02495265858701104
0.023312112050493453
-0.07576203789863059
0.019778923374659113
0.05341793117906551
-0.020448425123084486
-0.024706051389763846
-0.024949806260985582
0.04102405787244659
-0.022421668102761038
0.014486687463240736
-0.10192005347083051
0.07868896484545908
0.1110150358102134
-0.00878905435833666
0.11295219277436555
0.012017458428438538
0.02252287288151444
-0.02767803576148098
0.044631659340023395
0.02659429091685936
0.029430946986976278
-0.05052154694243062
-0.03300047529480852
-0.12558008481446964
-0.07683147344620017
0.022904546497260255
0.022208367761309154
-0.019852821624119485
0.012875544711119076
0.03349132862185376
0.034934731391895284
0.009155407555780665
-0.052633634880868335
0.030024102313203384
0.0785587968339176
0.10143316734146908
0.006439292265037149
-0.036887655503188836
-0.08256573230079323
0.021709458437480903
0.043899600322811205
0.0017894441433404806
-0.004783324209791015
-0.030732094341775096
-0.10851122717619027
-0.03308923998121404
0.0976338461530142
0.5218863311215994
1.002220003570191
0.4765868858752136
0.07121018738604992
-0.03294663299769418
-0.031135918421183514
-0.009813290352832243
0.02954523658350405
0.010636560487868138
0.08237025133589428
-0.009690593273727371
0.03379671147249926
-0.036547105595901984
-0.022081406456225403
0.037434512018251646
-0.030640980951978244
-0.04056904217549456
-0.12611391231774718
0.036328053999488165
-0.06478562154738991
0.02663668312810152
0.015588138932417814
0.0416944168581116
0.10206656978790037
-0.09592370414375137
-0.0058838931589302625
-0.07559583462460737
0.013053242105204383
-0.027983769535504566
-0.02408647693031657
0.0557373821713856
0.003993141006851288
-0.027272881403286348
0.026108066420423494
-0.00821067207882215
-0.12393517698781575
-0.06128882617939069
0.03873567271953661
0.02105785406150955
0.0003003411454109183
0.0027800463379737722
0.022654906186589857
0.10744703518072328
0.10924934366048167
0.03419083049145044
0.025880008363750834
-0.014907670482366768
0.046525140918322
0.13533654334490638
0.009552967200197543
-0.025313944679168518
0.06461468296865587
0.06026002993144685
-0.04251174334480698
-0.051658885881513184
0.016183714980620798
0.07888069859926901
-0.03328087872370983
-0.061815700650906816
-0.08196633933789615
-0.0468429927934738
-0.04474402379019135
-0.04933976899961226
0.06212079186542854
0.03387768451981791
0.0021795659449633277
0.07512146610747572
-0.08230208942423312
-0.015209261268639477
0.025936829608687786
-0.04832654103917385
0.011193590136336445
0.05971429618877064
0.01240649632610121
-0.028386773277589896
0.031335829819065526
0.009565009358639945
-0.10073199961660646
-0.015555307803497734
-0.04579780138548714
-0.056540615798976235
0.042491651101104255
-0.005902315534680055
-0.010439974903838689
0.04313030948946771
0.0019483134322588757
0.03629845168189288
0.031700044383096114
0.035472263870564937
-0.011034104639989864
0.02470325886965274
-0.0767558149470098
0.1388271326704157
0.04117834382321172
-0.04043109336577275
0.04007985918712911
-0.003266564815352707
-0.003855727134064214
-0.08453859150530237
0.058528930031363724
0.0783065369769657
0.019910706178892495
0.06031937567613804
-0.021668721051516127
-0.07866197609085052
0.0892255230290171
0.057570960209506465
0.019902738641857973
0.1262743427034861
-0.02943979630047705
0.07007653191780557
-0.034842073990851444
0.05848481427010387
0.0003332742970350367
-0.014871899900078556
-0.0571510793844206
0.02218888521861867
-0.022324619143741845
0.002585438043299637
0.037678756038009076
0.019287992363457625
-0.0038820110591573573
0.07888019430404548
-0.06706678426976583
-0.055906101196523166
-0.023722940757481714
-0.04133319460841897
-0.006418218451576693
0.07848889926201143
-0.02906144229109558
0.052682575179039515
-0.021591545047375087
-0.05840100524429248
-0.01371626334282061
0.057969014191382166
-0.043705434545209476
0.004310592885229664
-0.009018115917336877
0.056620849293244825
0.028719146457788326
-0.03335934198644575
0.06960187422848403
0.022951631115501248
-0.013718496956845445
0.017947171262737864
0.017746094928576935
-0.029328420119249528
-0.03853665813909074
0.07746885909106634
-0.04783821980080429
0.021538892360727462
-0.03841976783790142
-0.01859152388258774
0.13491661084458348
0.5770458396426473
1.009595566405484
0.4016416275369781
0.0838540553831269
-0.06252186656279565
0.045731296180319285
0.047540713250633186
0.02637098859044062
0.02640084489203323
0.057267370309797776
-0.032948112051975745
0.020055792176627316
0.02103526880278707
0.059571317164673725
0.05387434590649098
-0.09437008434151822
-0.08169357061915643
-0.05731885271742965
-0.027465168985786294
-0.06870067173355864
-0.033938399697988265
-0.03651349681606468
-0.009727024023293345
0.08336940902005191
-0.04011262333505857
0.05334414582424316
-0.032780159132937615
0.04711915086860857
0.04338712777374487
-0.01548118024634476
0.014761035683421101
0.09372855273975514
0.016150684232644357
0.06282580944310771
-0.016012809881702193
0.08567554745025735
-0.013627717222184225
-0.12959817738602353
-0.010066755606756007
0.05395459465819457
-0.05829257290538873
-0.060629654418665496
-0.038585773492195316
-0.056262110459976214
-0.01417780936413095
0.02586550738108749
0.07181300914953496
-0.02392891232738952
-0.04019432016991583
0.023181686960788542
0.013972797733855555
0.055541252799578826
0.0421717225470417
0.027634315311671466
-0.07841142239854393
-0.010563555691081871
-0.07797809413987417
-0.047717070205336505
-0.05933831926568847
0.056041866679301326
-0.09933893634613888
0.031138561575
-0.13182534865259343
-0.030938213900851115
-0.016237764528812298
-0.015874488772044986
-0.00417660597785473
-0.008705376188707354
0.021530604226749562
-0.05723923432885857
-0.0864944527135778
-0.026369690232100063
-0.05333794983582151
0.05520574839835362
0.015090703328670328
0.007313518238729626
-0.06888603428865184
-0.030258231740585468
0.08492128298637013
0.019433055009376164
0.05566194910570507
0.007200340597964746
-0.07268034262027473
0.04749405229491421
-0.009864867265586594
-0.0452181975555064
-0.07202187140312945
0.000386459575519545
-0.007347637665522569
0.026335807664928563
0.04212301711671425
0.12487068001203228
0.018403759940877236
0.007103925372177639
-0.002069068971595269
-0.08782598480070801
0.05653111186311293
0.04876737422330289
-0.018543618725228108
-0.04721096110318154
0.019016736070733006
-0.06148864448142021
-0.06283332531422704
0.09572484112128975
-0.07568075168920575
0.028348151858655992
-0.0033656834724479128
-0.022792781199535154
-0.07159717437411249
0.005039367497493734
-0.06177598483680646
-0.04463991527386915
-0.023501405048164215
-0.010596353438217703
0.0032414667938181884
0.06438049239418879
0.02880212281120307
-0.030023896262437455
-0.030457665185791308
-0.019306140706927474
-0.007035323130549612
-0.03158100068570851
0.029531506773413527
0.017818800873488094
-0.030784563258660982
-0.027918001698389067
-0.010470639849686743
-0.03177510609106127
0.024338887844865625
-0.005055796216136681
-0.03118633458604202
-0.017753265468155418
-0.04840332518926568
0.03530295491305257
0.11659799416950034
0.008361857182599878
0.07469602326145584
0.060970930667586444
0.06933978583884143
-0.024776234344745074
0.016089591452130115
0.00877432443186616
-0.039086599269342825
-0.06371838965610056
0.02803694366949354
0.0016225482824858768
-0.07469480916254724
0.04314641750384462
-0.04841850033773985
-0.0913287799091933
-0.03891758987324264
-0.014126627283390432
0.04943223975743286
-0.06007702983825829
-0.11760313222219954
-0.010597413238635847
-0.05714703065536173
-0.0333944699443642
-0.0039889568773095975
-0.05333404446303917
0.1048989167223828
0.5115332711468394
0.9879394510552548
0.528130315127638
0.08045374867386584
-0.01755476662945508
-0.08519247214946209
0.04300268545144458
0.015155281613901242
-0.02365630441499623
-0.00029156713410769295
-0.010567000566952629
0.03224137350282161
0.09131890184881772
-0.06253218691053956
-0.04395881859047904
0.05082945493908711
-0.03709092518812442
0.007264129759680629
-0.016729000069110465
0.006288554056144269
-0.04635970855941492
0.11013182031167242
0.020637436673521088
0.015432136689723845
0.10894436197698243
0.004886518960975318
0.01710319610681238
-0.08376234455107404
-0.05465798124722772
-0.08324104577628291
-0.011008068145557595
-0.020086375535043118
-0.028934920292268546
0.046579206355226686
0.04472728751060793
0.06400493765570414
0.03471969969350074
-0.0019132027178754203
0.06583106048984134
-0.02440707303028529
0.005423653910847984
0.03121790576751811
-0.01597957392321248
0.021141644670641436
0.037104407440044535
0.05596117539041095
-0.01250786044934854
0.04799235229759556
-0.03276698135012372
-0.0011996716181956388
0.05205620871523854
0.02581949234133692
-0.006487762474403762
-0.06165448063703225
0.017352830809437236
-0.03989860925301732
-0.02287645859871744
0.040885222834341144
0.019104576546282902
0.0017905952272476715
-0.04262245993669946
0.040072232399433284
0.027092776809605642
0.023548530370659217
0.0009284677170406151
0.02811780415059481
0.03441885964168835
0.054959113424373235
0.04231372642728097
-0.003515668929765257
-0.06246764819011863
-0.04750103867000288
0.04963646330562608
0.028526867485603777
-0.011647580048039848
-0.029565260050300787
-0.0026997884387982354
-0.015807367144693392
0.0437758014499873
0.02112527106813368
-0.0671154029766729
-0.0577450726851223
0.013403339399022739
0.0015404338298176104
-0.08555605015394548
-0.04961692754343075
-0.016300201876138908
-0.007449259863755273
-0.11928825233830097
-0.017444634476362186
-0.019882555551907353
-0.018038116714873417
-0.04207864532262187
0.020878896279384825
-0.07656188360250843
-0.010380841222209239
-0.04034048815846748
0.02284217131048825
-0.019045793225900637
-0.007883062500451895
-0.06552708932062896
0.006486950064276572
-0.10586181420345742
-0.024118492013112756
0.001424520244594522
-0.011823846076307149
0.009068500447261141
-0.04629516035462422
0.09484931239701136
-0.015733827570268626
-0.03926671842653001
0.051799400394575694
0.05819418580765511
-0.006519599792651028
-0.06623839038945364
0.01599443561230641
0.043115711334618174
-0.004450150193019792
0.018520880705788945
0.03496595036203978
-0.0033595160244426266
0.042935754342279385
0.08746942777902933
-0.035849979237476765
-0.040312959730640044
-0.07320836003010615
-0.0033690558444045963
0.05443139069494251
0.021095357250175518
0.03720142515196511
-0.05174744047224851
0.058837121506718965
-0.020920640667768164
0.059659385518808006
-0.00198702223549157
-0.05951909964813778
0.08209498572704085
-0.036986182168869
0.00838685092132301
-0.01481619295120876
0.008907276056153868
-0.014577608074739963
0.00838447629373277
0.025574961800298886
-0.0688058995836443
-0.019537455481707426
-0.04398953088108096
-0.018651386746293637
0.017868712765247735
-0.004286205828289204
-0.005707635070295774
-0.003727225540185674
0.033625068411076514
0.07819160757229417
0.04009288787707317
0.4838608345774099
1.0355650415286506
0.5553333328939579
0.12708210012335153
-0.007874335810715182
-0.05424286782820288
0.01148010559433468
0.047667967657558305
-0.01688085742342792
0.014568569902454965
-0.021545905191425574
-0.008814236101857484
-0.034102149075979325
-0.0815243259387584
0.05883108937120221
0.06374645685052066
-0.004959898510450568
-0.01522868147816308
-0.04884552312456927
0.0065305324769386166
-0.03135070131917595
0.03486513437348726
0.07825868953529463
0.09378898056992693
0.03951833614783236
-0.07544812449513959
0.030655912433755733
-0.008949357170919563
0.002750692707929899
0.06233899908086609
-0.026557996176105547
-0.0739283463532293
0.05172888239207394
0.05891465501003029
-0.0350020238986881
-0.000574408248007269
0.02261275135724742
-0.03161153130431728
-0.05857093327047579
0.030419210873757204
0.0013946554589360585
-0.04333307995631691
0.037572499634563265
-0.035225882213756304
-0.021441808270762114
0.022804782100006003
0.014800012794422696
0.049619624453561995
-0.07485180859790976
0.031005383402069594
-0.07702155908990993
0.07684347411709153
-0.005366995928127947
0.019817936076061676
-0.03676103223284379
0.011077762265396668
-0.030818481061752542
-0.04105482757779769
-0.03245171178030378
0.026574170485133577
0.05666805165182868
0.0014981501290744752
0.009549142055685836
0.04224738835573353
0.01197794640258632
-0.006980562908046459
0.10045697519860904
-0.03638411045986001
-0.06226456026911033
0.019890577321719834
-0.010783650400204233
-0.04809931343177202
0.004788029422186459
-0.012004343496510627
0.031094674736293716
0.010241557001231071
-0.033348914060395266
0.0804188826297615
0.07910543082723535
0.059225720751975845
0.07857562344220997
-0.008062250391746253
-0.004728915965317081
0.07779355432960759
0.05230485998069774
0.013976785552303063
-0.02136405499439685
-0.08370481263768187
-0.009093574245996603
-0.0821853305834492
0.0005172287072321851
-0.023467098361953025
-0.0454383048010345
-0.1044222954716539
-0.050577560542483906
0.009409689109946637
0.006086123584080748
0.042873950426172244
-0.07069774830356511
-0.018211951866655314
0.04182399006701113
-0.08183119177125678
0.01767436657689324
0.002274208042651565
0.009651819094855924
0.019000339724841563
-0.028716162282376213
-0.024639833922061816
-0.02448241199968731
-0.029206729922422084
-0.008537128995392903
-0.08084594037723522
0.0011850414648927894
-0.004896452830408927
0.009752822196102053
0.12062126308531525
0.003118157482296627
0.08169575450814796
-0.01282101767688977
-0.11231328605572562
-0.021206051161157296
-0.006525591743556572
0.0015176545114928188
-0.06283662278016
-0.04080223072167338
-0.09050974674483726
-0.01643296043669485
-0.04910018855128537
-0.0022028138503902136
-0.07946579318847746
-0.03242927123422417
-0.051251505734312953
0.07472557197749168
0.009660895801684867
-0.012378777429434185
0.06597874745932703
0.07758702763475307
-0.05489982786658774
0.016179984363096495
-0.04294539099984104
-0.0693621492087446
0.032105285636320736
-0.032158656843365295
0.0021737482346398662
0.004324494956040916
0.005141985862563491
0.1122318241107263
-0.03487455007692921
0.07482355396843104
0.030931744039032434
-0.07989830920819546
0.12150737535689116
-0.012065012561466363
0.1370517819791092
0.5017887138112636
0.9255023341382017
0.5794055277501206
0.043039271059049415
0.09307780265643073
0.03343128586701069
-0.08626326034498692
0.04051255364090455
0.02368454389446503
-0.015258182292089096
-0.03011928117729323
-0.06961556170360576
-0.06125586610631128
-0.06094066367598533
0.006080087206116839
-0.04705732486048511
0.04402972776774394
-0.038702185866286584
0.052025608971302297
-0.10731161853943726
0.011595786065128845
0.05427537026787613
0.025517001594321617
-0.023771943148072794
-0.0021496227319104267
-0.025438842099466525
-0.012528975091982808
0.04621453402102842
-0.07675195711430162
-0.01695318277337812
0.08127792324190901
-0.061271735299115754
0.010365024953779346
-0.015395738628122952
0.02214202093282809
-0.03231613021119694
0.01282734440101867
0.04793965211482121
0.031160996019097664
0.1353091572361724
-0.0478764172428823
0.0553992814008589
-0.027000078293403902
0.0923493970492915
0.029498258706977844
0.06190709892290597
0.006885692324306649
-0.04310253810937131
-0.12956943010900762
-0.004658618138414348
-0.025687561842992198
-0.0018722268684213809
-0.03959341679288572
-0.15045217537486424
-0.043060126735572246
-0.03238179923768028
-0.06850274555940995
-0.003338317784413368
0.07479775522924736
0.05461998591861825
0.04911752776563271
0.04047298990595987
0.046249963394750265
-0.004914633616960614
-0.009867619958743346
-0.01923609330322493
-0.01762816664607956
0.025663108334475056
0.05186743043863645
-0.07609064008922842
0.03526596619027306
0.05703746072006516
0.056854290274572665
0.012091543457610633
-0.08881608188415593
-0.03864572381413661
-0.03540733796658801
-0.01125364287102225
0.0027083587650617537
-0.0012757115751259262
0.00791849921107385
-0.01624362788151165
0.028831576063526827
0.007843666279890528
-0.050840296926577835
-0.0359105741818162
0.04049787930508594
0.07803933107656118
-0.0033849660112652957
-0.0002180186914607669
0.09106158951185538
-0.04583801307018413
-0.020519947915612537
0.018462408394793375
0.06478710921358159
-0.012482240923093593
0.005822361624207788
-0.0683097467007767
0.004747085627063664
-0.06820333843518069
-0.12504998745093307
0.0764793877513164
-0.06153109882568332
-0.035325626452609574
0.06810455346696949
-0.11450558013886498
0.09002718211513344
0.03253606880940432
0.09329199683843092
0.05788416182705195
0.01633727850447004
0.06590243849297263
-0.03839808785094956
0.0631788218017994
-0.020578319943818365
0.04594974440057356
0.0006769676340949884
-0.006071353272509446
0.012362759110048185
0.06089268298293561
0.08821353774821367
0.013047119792510671
0.02730973981823793
-0.09107479953430042
0.006252157361411756
-0.06611500364804
-0.005175667357887052
-0.003453196310001637
-0.004254667947231399
-0.006992100213795431
0.006704462607622787
0.012515443311042155
0.01794085064560154
-0.033095545560418396
0.017258654324726886
0.019250840830830826
0.049574866721540385
-0.07587436888653064
0.013333031189370202
-0.007480274584277802
0.08166093915595636
-0.04674266660988676
-0.07295053269255695
0.043613899826643265
-0.05641336000524251
-0.05364184643644862
0.025196056544083495
-0.051781457300727265
0.019832188356340263
-0.04636052554818005
0.030262057741403194
-0.008050181473365465
0.012769247599536288
-0.04067147405037762
0.005063689774498422
0.0161180481207849
0.04773238158351464
-0.04459408994148695
-0.05297149809142289
-0.016983198719710314
-0.011516070643197183
-0.015548809370481906
0.5221158228438386
0.9653036768460742
0.5511989292102424
0.19919335064731697
0.0321973939606265
-0.034558861704232766
-0.003363890500424873
-0.036579657772413544
0.029179496320613597
0.0444560959472081
0.008349714574793018
0.047808212527173974
-0.09331883755203031
0.046670504240651896
0.04537807906554389
-0.024884119649830255
0.1365985094005963
0.07580050469891403
0.03609210691574284
-0.052595721315808155
-0.08646099909984627
0.040076218682966895
0.048542808234777246
-0.05478379624236144
0.006666230794388423
-0.02551159887605589
-0.07035715899894142
-0.0650704536196579
0.0527465544697598
0.038509744748088985
0.09419698305354246
-0.03569327596390118
0.009082144161327124
-0.024707193769308078
0.022968161163665166
-0.028781831459037083
-0.006142429739869414
0.02846229533568627
-0.018238510685730347
0.011376081686682374
-0.08186260586602358
0.009352557711908542
-0.0010444121187876338
-0.012170973870915232
-0.029829563501976405
-0.0381526013339088
-0.014512812630256944
0.04236292426097366
-0.008173632590841499
0.00880763106747441
0.044018674587090224
0.02146247845953374
0.027095978465384276
0.020619758611085975
0.014835960020948755
-0.03740197944726763
0.050165084910395036
0.10075997292271224
-0.0348123556718728
0.10435174783848174
0.013281310860499274
-0.05343543976735893
0.03363814504253317
0.03127295045575708
0.06370544652846212
-0.074694768810191
-0.005589429135976442
0.027124544094267622
0.05975433209300354
-0.017981343487913352
-0.0525060988766512
-0.04812558422632537
0.03177299311871021
-0.08353627437021456
0.012208744943949487
-0.0023279250031953557
0.045734567653688475
-0.06119210304725268
-0.02596824976712078
-0.0020069335932590463
-0.05229644442467438
-0.05889670217506085
-0.04782387648053553
0.09016492209051521
-0.03515107748342818
-0.13643441747953544
-0.13573885041465336
-0.002890891247368934
0.047231767842054254
0.02986913100179624
0.007366896982015299
0.056862053606032636
-0.02205686415769534
0.021914168504515094
-0.07433623622400068
0.07981484430162236
-0.009454616738135545
-0.021202786977955662
-0.01924254259637148
0.037902690920526574
-0.012340693910706146
-0.061383363018057024
0.014843691629853937
-0.025011364878387822
-0.03333364774707203
-0.03604396267730165
-0.05250272234326429
0.1169215508533491
0.0021238035456354414
-0.040194056131017696
-0.012235705420939233
-0.02021803280971468
-0.14203625479676862
-0.06676732584382615
-0.04029961562680758
-0.024900622406464363
-0.02828304416815168
0.019180696798924923
0.0683638500707311
-0.008260835441957248
0.006991510575905845
0.0842767041837473
0.020264669189370338
0.02998198563658984
0.03559741086213044
-0.07911158294367397
0.033589660554913574
-0.015264879373426658
0.013994298015188037
0.02787781612883355
0.01893418360039446
0.00765031173439118
0.019340299150276213
-0.02027519191899719
0.054797241197269364
0.015887966064817183
-0.050951696716286334
-0.07784153293035309
-0.00788492335749527
0.08548933093676121
-0.04261712689370803
-0.048187291092016166
-0.08686783299891906
-0.0305589469411522
-0.005533187496336585
0.03867262929463511
0.04489687931191201
-0.003617380236296032
0.03487411219983995
0.0369920238199016
0.0130726975830752
0.022346507571011434
-0.009810690547987925
-0.057156704184371535
-0.06562517611501889
0.11522350470200182
0.5198088277782975
1.01545333878021
0.5389615710471138
0.12110748646210592
-0.10686946284222376
-0.006520688723175948
0.009736593221630375
0.02263308183984965
-0.033860948323505065
-0.03131867186686061
0.007228661471992033
-0.040180295512912786
-0.042052769811455615
-0.010952187072026874
-0.08367175815718426
-0.0029482181841578017
0.016421279692458608
-0.042704207679220015
-0.04854636625446645
0.01348042192966423
0.03324189780946118
0.02963477806567351
0.038246890348388955
0.11809102667682912
-0.07261384888483867
-0.049938723315735685
-0.01314943899994604
-0.043968645528057015
-0.0029740343851882393
0.04646547670495186
0.03463887818848614
0.007582731048633536
-0.018254182502591604
0.048656308119970654
0.1328334376713704
0.11888876711748178
0.005948106823077124
-0.022194062821879888
-0.03043150675737252
-0.04936164448356758
-0.012265273117745125
-0.022017328529399444
0.023351553990136765
-0.11526254094259558
-0.052146891904350706
0.008540413219092175
0.06915279788635509
0.015456536672662955
-0.01641055020786599
0.028791492300121804
0.0734248424426547
-0.008858159047083375
-0.03466407709990315
-0.07414014776404947
-0.0610513204196208
0.06273109417867144
0.03497441967800258
-0.009519539265614038
-0.019955193890396482
-0.0007677341224440362
0.02635352504738744
-0.04785198471333493
-0.006572077870003221
0.005049208136924262
0.08477162692639992
0.026516387008234766
-0.0009695654893770756
0.03817427266399373
0.002931771055764051
-0.06322491707730911
-0.02723887805932821
0.004258870379296601
-0.0023809344332142175
-0.05550863910742271
-0.0975578985938898
0.05995287214823772
-0.01349991604530654
0.09432383060758746
-0.03544161516364991
-0.022179183788529355
0.012701778392629193
-0.04375543915293114
-0.03352045321790757
-0.06647687191656315
-0.08928998016943948
-0.0055673191802907175
0.006112489847945803
-0.026316091434855384
-0.01001431873064794
0.012191372527164861
0.04933186427000015
0.03118504683642337
-0.10329715412108714
0.08379763084095211
-0.04382652598873475
-0.047585708634929946
-0.0817594186393108
-0.07737900772434783
0.016233528676912145
-0.027619728483755143
-0.0023432564344120902
-0.06891105280195559
0.039568663250231485
-0.14961135358704344
0.0062154673566583215
-0.012216446457167856
-0.07977373442254926
0.05171838583489649
0.02808848330330818
0.04620946797242919
-0.03949547437313901
0.01565669931355365
-0.014538582884377075
0.10493429205130536
0.08786560588386995
-0.007432033044338779
-0.03739399729876091
0.1153232959668275
0.029335568691411754
0.07594088216463361
-0.03881087422707846
-0.04379460266976115
-0.05132372048852934
-0.004602230102781643
0.03424823226229242
0.00032219457331083775
-0.04025513093572832
0.03268295188331693
-0.025458589118982907
0.009417002229960775
0.04644944870327948
-0.02388305257185193
-0.009320637078088527
-0.038774259206295826
-0.045439897583814
-0.028293196872885576
-0.06122952113262964
0.05400359857780054
-0.041707918543883254
-0.014290786387248717
-0.0300499464035364
0.03594624689046807
0.019892119359207098
0.042683603858756775
-0.10147606809249354
0.04025266174384773
0.06712022218338727
-0.022314430806936066
0.07519501964312833
-0.018168599198897104
0.026840113479398537
-0.07020469654036302
0.03390183784331108
0.5597946232809974
1.0563943373557625
0.47338803741422963
0.16366866385787374
0.06668072637552108
0.0530507266219611
0.04777004398053446
0.04046906146704331
0.040390800419157886
0.0013119689026183732
-0.016728477931057313
0.022719467256797785
-0.010018927651725212
0.003182563766278651
0.0034109549463810125
-0.037163452462857356
0.0009303275209620066
0.002087233225760478
-0.058458614709887495
-0.05082776073865733
0.01803131038116695
-0.07703811506840862
0.010335892499541706
-0.05063568887937534
-0.04871339208440661
-0.06244686887430123
-0.06906793506145995
-0.04293766196638169
-0.0200477053884091
-0.01944692289763181
0.034899642706635085
-0.042710065019160984
0.06856635661704404
0.0376860242990752
-0.02069344628312883
0.014563673533352042
-0.059869175656373376
0.10858857154106515
-0.04729214962736521
0.006191972308452936
-0.027867867712708102
-0.0534600621352669
-0.041491873875529356
0.00671892450594886
-0.022299859474756673
-0.029656575972205584
0.05361769450698004
0.04616622620630681
0.1380061647551258
-0.11959505797566589
-0.04222697436335505
-0.024140333360895303
0.006208048460002906
0.025624291032432252
-0.045311625539059375
0.073492580097693
0.03732574376070416
-0.05201091700542918
-0.03261083771242829
0.021132002763987384
-0.0021229962629337527
0.04620073754085533
0.007884562217975845
-0.025699491506163404
-0.038448249374605545
-0.01723877252731932
-0.013653353736474652
0.03288713948229344
-0.010877003581890579
0.009740794197219987
-0.10190328914938936
0.005296996436351523
-0.06455734205960115
-0.009215237714209101
-0.00020402219059582145
-0.03409080514059544
0.012754960211403356
0.009821772043371941
-0.06109241647807145
-0.02374225628720915
-0.005140237600053872
-0.07330450429138755
-0.024987449984974434
-0.010804594492411506
0.08036281490035778
-0.062093381387699875
0.005903332771819187
-0.0785986820025958
-0.13863892710720968
-0.02219982167101488
-0.016842261417139678
0.007837637736109494
0.01700114524688561
-0.03446223945562744
-0.09409275170950594
-0.13385267005207563
0.0490205780507022
0.014201741505516847
0.07722591542894972
-0.005915999631602826
0.04174921956513695
-0.022955941739303997
-0.006798375852894476
0.0403219863941893
0.1043383369834158
0.006954968319947511
-0.018672534335498137
0.031701632886617086
-0.05504818537204601
0.017034033986149773
0.046230024549291864
0.014231650960907637
0.05207329731581413
0.012355431077353941
0.04965045019440434
-0.0034978618941139423
-0.023633586400790645
0.02022310557571988
0.02682910207107926
0.019087364121007092
0.03790728971502255
-0.015201832580513594
0.002281976816488351
-0.05822663298329017
-0.004669887261506199
-0.014583158636605285
0.10703520216511864
0.08933842626295622
-0.017533875634894353
-0.05999073270611426
0.05051743756941212
0.0008518358507609727
0.04444107331992671
-0.035338880162326
-0.07528518821066973
-0.04218370651838852
0.0013252144980056382
-0.006243217461206304
0.040543414046190746
-0.09703190717124771
0.03362667621437747
-0.00615286684594038
0.022512073698220662
-0.07498596901246123
0.04806142895654368
0.041244299745335104
0.015414833058454938
0.02995461615137628
-0.1287371789002053
-0.0016575821103637274
0.021149026038594615
-0.05138167329372428
-0.001271323144763643
0.061344850422815116
-0.03276471912960688
0.003615966052209835
0.07045575597822921
0.09818001736951593
0.44652873725506675
0.969572868637475
0.4849177343556345
0.17834989203151408
-0.016064594388733932
-0.003442827654328743
-0.023351584947841363
-0.05947940434159174
0.07065332228540931
-0.02744680005273787
0.07385314817867474
0.04942998827097302
-0.02626545621283611
0.027142352524225012
0.016333759108598075
-0.005767747688192774
0.013930161175151501
-0.08520091664286188
0.037543098713745504
0.06555753568289184
0.00798984133346468
0.13570119415602097
-0.041559235240135536
0.029165947550715023
0.06532371750456546
0.04344514189974925
0.03836973431838606
-0.06710756287081181
-0.004386092421515812
-0.005366450481639658
-0.03199424617135054
-0.02143837545021741
0.03432305379029641
0.052682029191951245
-0.03653837162150564
0.01932093615662524
0.0207498256371651
0.03337820903010337
-0.00023141988156036492
0.015086520658257977
-0.031580359856478696
-0.051972697943397206
0.13090599963565006
-0.009602355568610004
0.028834606326303636
-0.044656443813262295
-0.02255127028801375
0.07927622288189429
-0.012130277568270032
0.013474407889735883
-0.017718344016427173
-0.05314829415959667
0.0062234884000379395
0.048263371670371015
0.021134298325286516
0.055017338178139086
0.005473619647843139
-0.042804159618193914
0.014189905801325411
-0.018775211407445137
0.0757192152600172
-0.012986366778317195
-0.003374508637945166
-0.025183465698643288
0.011616220299953808
-0.01279729390843708
0.09043416118606244
-0.047962152842379896
-0.048120961718656846
-0.016293763626771457
-0.03616791655607842
0.03133679874897811
0.04828737250022641
-0.08680797015156472
0.0876974468585235
-0.09516021245053835
0.03051004546876599
0.05438290931683726
0.014762311052898073
0.007930817419640543
-0.02488924235520684
-0.04915717811820015
-0.05830008860091878
0.011526769929905447
-0.022461940974737984
0.012918347132734596
-0.022725443841959347
-0.0393412108428143
-0.021987318743248604
-0.009434697599934667
0.01982376189193169
0.027156076085914124
0.009695712806364103
0.03387324040516218
0.03031382489186405
-0.09321922663344355
0.04011197103392475
-0.05795626956816688
0.03995793666324449
0.03570757182282155
0.008424705485508343
0.054493787864034963
-0.01879808960745551
0.04194187467847776
-0.04123711426044633
-0.006218657931307373
0.06448949669519881
-0.036843152156252314
-0.022371776934652157
-0.06211696653031114
-0.02096443600795862
0.06812003423582001
0.05047918456028771
0.025713338873313896
-0.015791231328555897
-0.001209057757364846
-0.05259611343718316
0.016601596863606995
-0.005008441039155678
-0.06148370018955316
-0.10672546119536375
-0.012636379436705498
0.03969706813141007
-0.04356011070847573
0.06965764150802493
0.024898625997688512
0.03448572065487443
0.009744027588138207
0.08386590803559589
0.018752851573473665
0.04515416845232487
0.018034677367409296
0.049150233426099976
0.1418066420017847
0.06933563468037753
0.036200360771712924
-0.05309947829864308
0.023707831118923824
-0.011826299741119678
0.017550714780372602
0.0429196951793091
-0.024164973049504625
-0.07305536030457802
0.05098690851258356
0.011526025301982622
-0.055633461649234356
-0.038651107232743925
0.004992111015583143
-0.022504198205893795
-0.04614439894184982
0.014576680420704279
-0.042299656155688016
0.0060940997222886945
0.01197826670280245
0.013490364595704766
0.07638998069828784
0.06818340081316869
0.005215532874083347
0.11562515000046986
0.5297114237265265
0.995372502890561
0.552768382833353
0.14038377184887574
-0.040656327991726894
-0.07746076247877864
0.04132153153889197
-0.027472743121533572
-0.03281203843031159
0.01348576597889739
-0.0032973457172107215
0.01145270851941067
0.022155117228135388
-0.025341232740701377
-0.05083665423172175
0.0933338479075569
0.029732509450304062
0.05629902636074516
0.11432907538964399
-0.0510498480398964
0.033344699308474994
-0.02487532955109753
-0.04505607101785635
0.04758365182384889
0.10213487777772615
-0.0401920557482367
-0.0868807619987841
0.06463569431789894
0.012387679721194369
0.0307930480561323
-0.01418532344720685
-0.08713286327825762
-0.01884678271537671
-0.014034360616802905
0.0006698014842837473
0.0024183568547495255
0.06093260841945676
0.021079347270095444
0.04674042035197838
0.0011598924159306927
-0.044093745258626665
-0.005532428435066684
-0.05280078347772286
-0.029821074009354298
0.0567392863104685
0.08531949420469519
0.059833738443234696
0.04122699844933098
0.03144493192381356
0.01747497142840373
0.012506495270238407
0.07360986782990027
-0.012270398306291954
-0.053789880876697095
-0.1078852402549541
-0.044040969263580115
-0.014034516218708446
0.023593987296077687
-0.009497213934959265
0.08536395359097543
0.03607262004864726
-0.0895701961813824
0.015910111230351923
0.01777110301687877
-0.008595618345634165
-0.0929177478310981
-0.052864093245776234
0.05281324695030864
-0.0435323224246194
0.03692220253202151
-0.0932691871268827
-0.07186316928962742
-0.024953901912724553
-0.018658374193796488
0.034680988367602125
0.011180604077346314
-0.023553608694791114
-0.0939143900698904
-0.004740444698333019
0.00048311466389414266
0.008044429136762812
-0.03189733709343804
0.0672221158162974
0.07936493207086144
0.04032709819381463
0.00921214343951953
-0.03655209034800153
-0.02359034381577344
0.03957106787456994
0.013573374469226974
-0.007970147290522357
0.01696475124822769
0.03834093864255801
0.06198263674060627
0.05739991178993259
0.06813569075184917
-0.011117415339420322
0.022411387629697604
-0.03473962758788956
0.10627054283099502
0.01232149807962412
-0.02242178055422832
0.03324521782466975
-0.002773962025834006
0.007248143047411565
-0.013046375760895804
-0.054750117883734184
0.054808234248500814
0.010759302459153441
0.04225249880840092
0.04650624823632085
-0.009607352881672592
-0.10176166385312468
-0.013037242209171655
-0.04410329702012169
0.030227259714262024
-0.06464211220331112
-0.05054424846213619
-0.07790214686497934
0.011235330531565826
-0.07187706576978373
-0.1241758580999156
0.026983574395139556
-0.0009033600196471591
0.034060652368114175
0.017449431735723744
0.023370560765808002
0.04972118365234665
0.002392521263905945
0.10343705165640045
0.034087207914721064
-0.02685991560006857
-0.09465248389268803
-0.02625904469200825
0.10142590800687473
-0.04206041337963215
-0.0382172698401336
0.011122845762790585
-0.021070501325631947
0.03979683309582169
0.06777591721886243
0.039186694419273534
0.03255582659271431
0.03434723008921272
-0.03400965263926983
0.12107180905336504
0.016340685753874307
-0.05610346866223842
-0.0047470995866183
-0.023732192772116023
0.03141055270043421
0.05765152177286686
-0.02869644668113204
0.005063610865917313
0.08968925959284675
0.4775318188585508
0.9649721470402978
0.5715036171998179
0.13797206938861512
-0.0656194093435485
0.04389737652438028
-0.026684892434939586
0.02466773968460601
0.13066112656126957
0.07054814535316115
0.0780989483516078
-0.0939864432501353
0.0349288660294913
0.09106800997564563
-0.05653110900564254
0.010171802146722078
0.020546431805293405
-0.029112020401422013
-0.10253239315530172
-0.01562986722698865
0.027197857302903423
-0.006216136328438756
0.014819969624135943
-0.011268631489432808
0.01705069705839603
0.06760585517786112
0.010375823040074155
-0.03214976117347527
0.026545898791276574
0.06437847098894887
0.045121694265769514
-0.054845134840485234
-0.055433845727058284
0.08957995479514957
-0.02200468000336174
-0.12375997550617604
-0.05538114559413561
0.01927455108273879
-0.012661589932124406
0.06206546435284637
-0.10205983110087043
-0.04951730083379814
0.00666573519906738
0.04805002705775929
-0.05152561670689857
-0.06567792928147338
0.04804170227390948
0.062202629235659834
0.011799461293040596
0.011931810784779843
-0.07441216309553007
-0.004492646324689001
0.021002248397308923
-0.05608637691590194
0.01526545561824596
-0.00206393936254722
0.04861554381576284
-0.047424405250573946
0.060871828392157025
-0.09437770021524627
0.11662096264596478
-0.0291770180098596
-0.07569101573135464
-0.12066042606022137
-0.04900480319273662
-0.0021224305002297728
-0.01991446453691446
0.05217324787720323
-0.06310859329121633
-0.019261712796526477
-0.009411870010171595
-0.05725465402502433
-0.008043347472254698
-0.037390326064802276
0.032773607823346346
0.027970911985539717
0.04388296652051608
-0.017188541010546173
-0.05698549550262799
0.01049579414062684
-0.10798749572861333
-0.041129210230652004
-0.026203053456692417
-0.15569048659428156
-0.05124084334228532
0.04955525317077046
-0.04123679447805562
0.01859235910471281
-0.015612913028579487
-0.008001714362969337
0.02520711214946175
-0.08612901349750585
-0.12095721232441087
-0.058736188535835954
0.04470614285092868
-0.011721177808927096
0.09219809653746433
0.032049566608716225
0.004689639458017141
0.05773139000199545
-0.020438184022010874
-0.07860177598368462
0.02453462812630744
-0.04836963340643098
0.10820841314104722
0.1013204045625593
-0.0567661850807478
0.0013920571263605938
0.015188533794273257
0.06249572195391413
-0.02273541901349961
-0.0495955293391908
-0.051649693992703874
0.04896510069634552
-0.1118775207353323
-0.07155621802892312
0.018906685304444084
0.0008081384042199221
-0.08909939930219636
0.039589642736216166
-0.003721863136582184
0.13022119424193487
-0.06187109485534597
-0.08468114968890929
0.06954906891572
0.0010168912197829221
0.009459217567801192
0.030274598708460262
-0.09118177044586612
-0.029364005422726065
0.07025815153576186
0.003145259983011558
0.035372553954921164
0.014331837392174973
-0.005934669085758975
-0.033669026565893115
-0.05043178062288154
0.003868385808124409
0.01615669692724603
0.02573740529210842
0.03954755623923366
0.00022211093189676372
-0.014593829822641622
-0.010450406156376374
-0.04615029798533493
0.08422237908388375
0.0352279113443738
-0.021305405699403854
-0.0824627814480087
0.09075484985922144
0.010363536135321656
0.043255384613383074
0.029877228138065315
-0.02214357854302354
0.02712866726878023
-0.0350323270515707
-0.00961900696314007
0.029701007753004067
0.11785225004833877
0.5588042397017033
0.9977181283361581
0.43333651827812475
0.08333951488982089
0.0063273007543822694
-0.018230519167929633
-0.13332219555929756
0.03840664846071795
-0.03279827811585128
-0.012880983612104276
-0.05788492574875237
0.026038278841998736
0.03409781491334212
-0.027820478612796518
-0.029765048798654922
-0.05817641015716332
-0.057750342525663495
0.06995351802349613
-0.08635097431364824
-0.06656671247342097
-0.05939786152402207
-0.05464431414621558
-0.0668725946216817
-0.09103767570354829
-0.0712516470328076
-0.01807076898551847
0.001054750464406154
0.005529401925577438
-0.04459307077014657
-0.008330052918323038
0.019435025660882666
0.052273158832469614
-0.052204471572348136
0.036960147940530916
-0.04064506884651618
-0.07230074612373752
-0.006566785196040312
0.08306060155467526
0.01740217102150786
0.006090229209490543
-0.008069097653925309
0.039161733236708726
-0.055774805099343384
-0.09135580605629326
-0.0378758407658989
-0.03986534630421423
-0.04203779577293733
-0.012606145422055768
0.015139618392138754
0.013398149351567929
-0.04700375485967184
-0.012165360460236483
0.017945508185848575
-0.0636260836586202
0.009403410621046663
-0.07091611103617465
-0.09493494997523477
0.04163912645700329
0.005173617063306945
-0.036752372350887956
-0.05762149419856491
-0.12494937533777216
-0.12468716238882543
-0.03119321453631421
-0.053947431886229816
-0.013514170475120539
-0.005405254423023425
-0.06695738313584527
0.014316028058239167
-0.01717770984836078
-0.03293216009090268
-0.06785535649754929
0.023426909757493827
0.041658769815421826
0.0344387703794208
0.037382733702586116
0.024660491837587045
-0.03959606836866301
-0.007649274006161975
-0.026610546555438305
-0.05918632657356332
0.14725916332712724
0.02600394977614986
-0.04778354519451593
-0.0038308774787961446
-0.009840674370817246
-0.04358511329926928
0.007533439775124382
-0.05140061771171888
-0.07594995404143431
0.00475663577469911
-0.042620402256835666
0.1297023036247736
-0.02194740429968076
0.036393615835903295
0.004950590621978943
0.07989415784080467
0.06305202134729643
-0.041521087793951715
-0.03703896699366573
-0.08392476230490256
0.038424539820980715
-0.03982685912909434
-0.08192041656371112
-0.03725173845944009
-0.01845445657599395
0.07649857135032985
-0.03749034363249895
0.039966227684700956
0.038068175534626804
-0.055508399042820414
-0.07228974436841942
-0.07787759546374955
-0.026932531784896296
-0.03268420726438603
0.05218235484653749
-0.05664606913422885
0.013192674322594215
-0.03350581002568958
0.06105433633739783
0.08788996747653309
0.07407205415867472
0.02615375741082251
-0.037562476602109436
-0.007846673832213406
0.014562545934760663
-0.026096270473740125
-0.05404052434095753
0.058363524890161306
-0.10509100026651536
0.07675437140413399
-0.06518635947024559
0.056751063047164346
0.04262593043521495
-0.060612204413917486
-0.07768983864661766
-0.00038833464031812074
0.04620694514178811
-0.1030918221540955
0.04320621878956039
-0.07407832244774216
-0.027646573734247205
-0.07071905011187182
-0.004356264146015066
0.023083799767758824
-0.1183209422077448
0.002891610860169487
0.045110141100119606
-0.014159129199413343
0.03719819632283209
-0.08189312803469762
0.052571131174097896
-0.011032439787389749
0.21639480316890658
0.5185678616416222
1.0229751255482156
0.531456595552288
0.10882104690970057
0.053043394542722194
0.06057745853730623
0.08367179024453186
0.03947751246896175
-0.025784218049168278
0.02056569965958796
-0.011633213228850477
-0.09083664987075318
0.011979446885957368
-0.06574902431717465
-0.03852962146457925
0.008838913453536896
0.07018506737083915
-0.047170697098156175
0.04176551217595294
-0.0023238253587035142
-0.03601354036763901
-0.05087737751818061
-0.07088969512763797
0.007753522137997292
-0.05985490629769352
0.005958245168598639
-0.05510815869238857
-0.00366552271797796
-0.062010591516361714
0.0526241235472019
-0.05411900680145251
-0.0855158320484667
-0.03165060062760945
0.01627766514739909
0.06671489813961291
0.027549692623045453
-0.013264923598330917
-0.08564460846754875
-0.08140259468289347
0.04106163773116764
0.017289014749132473
-0.0006525778361701074
-0.003822424910210961
-0.005085115892073417
-0.004234054595421424
-0.07697799074656317
0.07377858337150207
0.04471764515252516
0.04875745862799116
-0.014393028813206392
0.0005476188973422583
0.016791937560089686
-0.0219856783437274
0.07518458115053506
0.025586956792380974
0.0733827515105696
-0.10770688923880156
0.03248266351380041
-0.03280721751929866
0.1071515917729752
-0.10992737760571765
-0.02379086532624553
0.008138253380436581
0.004994989127603753
0.04047818250773407
-0.07632520506012862
-0.03458901800090376
0.0146612206378097
-0.1036040226512217
0.006016160553237438
-0.017672442813110027
-0.032099402895475804
0.037266337751337086
-0.011469087568590311
-0.0387739289730446
-0.01268036495780906
-0.03732392269719088
0.06868824467010039
0.016160198251774
0.0767782040990333
0.0009860378097899393
0.10131709113226293
-0.06421800455155845
-0.006360834305911229
0.05042328112521839
0.001658171855577305
-0.1323739908448186
-0.008446948332372925
-0.04460229466971566
-0.07321531216539166
-0.03566631702412114
0.0488436400810319
-0.07051997539875474
-0.017218837858333412
0.004057172109184995
-0.016026809741622232
0.04479305144094995
0.03666875473106563
-0.037145968533543045
0.0805223677012602
-0.016767923084137774
-0.031144706823071935
-0.058596418082240975
-0.039327714829271276
-0.059689931209082815
0.049297002017385835
-0.008603349482641078
-0.04589351601126421
-0.09096412630889938
0.009046647524238408
-0.0479841877913296
0.039509082620458186
0.002037307788832665
0.03824869423590711
0.01725397521220052
-0.009754848870118045
-0.03197122441410593
0.08777224608182159
0.018391808272276586
-0.03901823045307937
0.006654805408330883
-0.1122910194255926
0.022420470310075144
0.04955519493945612
-0.03972849758160962
0.009965214287648004
0.01001068655014148
0.09337051648330336
0.014373650274418368
0.07724409912373469
-0.08140018227798496
0.01762485256802501
-0.03564247340943759
-0.058590648631063
0.008965353581635445
-0.003803514398960991
0.006729768771478806
-0.012215781361541861
0.023822517648984153
-0.00020212299606260439
0.0126664828122946
-0.02059084561181797
-0.04292427023364401
0.0657275908214177
-0.04859048429677798
-0.021835992722795253
0.07129213720295052
0.02543793217547771
-0.025165671823137916
0.024341671802188675
-0.07423023521386111
-0.01603614927594057
0.07010896205155517
-0.00017714845230269624
-0.06732474479681
-0.10145497557594402
0.0727904497004656
-0.02176076916099653
0.06092121032389541
0.1340688234120435
0.5143637143346558
0.9498703173652324
0.49998011787906527
0.0426136221758611
-0.005156678709651519
-0.037977861126127825
0.024638893508926167
0.046595545457471244
-0.06383893271513957
-0.05929718895854354
0.07358929844483313
0.017807365133782123
0.05157270906534919
0.07112086806526573
-0.029035359569352954
-0.05770950484423202
-0.011611981298235333
-0.03452486263590943
0.006504184086377717
-0.12876898627712902
-0.035100024347138055
0.023133376216928268
0.04485319678324744
0.039038181315781816
-0.07415097811141234
-0.04380805826127603
0.04264734044748933
0.08192401078101452
-0.05373204561410144
-0.0010944078376815196
0.09504043842287466
0.023155910708484908
0.0008350445725841181
0.03357440697448144
-0.002613615411215609
0.08195090449357177
-0.05239784621439192
-0.007825801422595355
0.008055809437941609
0.025296025367611885
-0.017648269978080524
-0.00792250009833729
0.023485282141125743
-0.007614663665752919
-0.021225604177500565
-0.028869903117214685
0.06528155732540455
0.004737302407079495
-0.020653486572567624
0.01580934098242894
0.029780894540821265
0.07459936182633277
0.019180224705134093
0.04521905773381969
0.05075009473668969
0.03424829134256715
-0.013303596823402587
0.0007323924957902759
0.006293328731345859
-0.040853328357329084
-0.08226346619105995
-0.022474052997137867
-0.04790793429465934
0.014356161474726337
0.07761851396197803
0.12079759227397771
0.0042058763453163206
0.02161023482513067
0.029806317272447848
0.008025555664182688
0.017924778078781383
0.0024958252389440114
0.01464677813262206
0.011659908733178792
-0.03465290046485603
-0.03892203462177579
-0.04496179962502823
0.017722755578560796
0.045782626498431164
0.00579899060808567
-0.022167506393759556
-0.022615791523126996
0.00371971391078042
0.002123494073958347
-0.03186902328543128
0.07687788447618304
0.012172671781368044
0.032660565505101616
0.011855787067429582
0.03904708575492808
-0.061216289826529394
-0.03591195261534996
0.007497667282778713
-0.006967285887004575
0.05763020726633198
-0.0582398306342676
0.046605264563138585
0.03066766631288308
0.055661159383091734
-0.04410713202401471
-0.12105945212273113
0.011133528749839507
0.02112439740112898
0.02491443382377738
-0.010153984964453296
0.04869763719594817
0.04072281719855352
0.0027273512992137326
0.1029082543239841
0.028349930960075223
0.018331605472172892
0.029149593458791985
0.08000318238233271
-0.015863931975706562
0.03723364851981755
0.0033182562092685525
-0.09678728463189845
0.034410923350296815
0.05436240640930508
0.0149364278535189
-0.06680125300112398
0.05773838285156903
-0.004680713672545751
-0.004497238773481901
0.004256411785233862
-0.0067633053446127175
-0.06738877372802388
-0.048759757925389
0.04596349940413031
0.01109261843998609
0.008807563522832441
0.038436909544561096
-0.0031462439928827395
0.00923333979312833
0.043765578960048734
-0.04760676644197375
0.1326844921159672
-0.008225213526438716
0.04706450097471024
0.04526774748990801
-0.011103868762543899
0.04853034084288729
-0.02283888598221702
-0.10525122179954122
0.03292652251614619
0.009587211488308758
-0.007474844901285232
0.14164129248590582
-0.01705855429988311
-0.05576012546862166
0.08058536285525486
-0.003062146927560381
-0.10617055911375395
-0.04987914663589053
0.00736010644089118
-0.03199184454576963
0.03537905769177509
0.03947885297479886
0.5302694658135144
0.9960281915493707
0.481954815301826
0.14784989363424383
0.044221998414945646
-0.13507844068541316
0.005543846868430169
0.09189470347714263
-0.04494842796899482
-0.04301114467693634
0.05019605128462373
0.07085633531102559
0.05941864367671615
0.03750373681925157
0.05302818944925253
0.04114158996494222
0.007282109945984421
0.059961820741104045
0.04757773589084825
0.0035567861635217566
0.0030342701627474444
-0.06312541469524795
-0.01624422269787501
-0.0897695862478968
0.033752299744704534
-0.045554639576553375
0.023899368891873753
0.011994057370756898
0.018692737785067463
0.07440518825306283
-0.03559408514251829
0.02064311120914898
-0.0438741767432925
0.08918573010368941
0.013091444968966566
-0.09654830139312578
-0.0401741097833705
0.028207060850464313
-0.0033370753900395
-0.031198938117412714
0.025745868936475697
0.034943076756579414
0.008902638035852381
0.02918590303284829
0.03144128299114792
0.03346426804670713
-0.018799183656124662
-0.01870626485989045
-0.025124857957375138
-0.04512368777188652
-0.0024731522940446664
0.0052915183631288
-0.005481562890857748
0.0032767634028213312
-0.021298457448033947
0.0025592018660466442
0.002713864681171639
-0.012118392939522174
-0.03636181736041989
0.012876357524917566
0.021646284738691242
0.005943163959581897
0.025473419141791277
0.03023016146027135
0.012460015609772494
0.12594070505377372
0.049126262574339385
0.10877316981992202
-0.0227030707119452
-0.022539694410950217
-0.04154659366757315
0.07977696333127858
0.01331641790163273
0.02576074739829544
-0.07516740940781119
0.0064205534169993585
-0.01782937125224843
0.06800030297253025
-0.06022762850059443
0.0476472674034521
0.02555354198689874
0.052729743124670485
-0.10058039598050726
-0.011139218975721175
-0.1105441229942751
-0.020571867523454523
0.068715931687633
-0.013805836257559448
0.010081120777237518
-0.07468402189367553
0.032903202313157805
-0.03882826548898064
0.019896067030784243
-0.06002487023711522
0.01998059008084945
0.057283578609465896
0.0025452301204796023
0.05065225464105884
-0.07322493158979897
-0.012399411230892136
-0.060542205571348595
-0.07161501438868027
0.04852420006772693
0.04262559401182161
-0.032437707889579045
0.018284822629860222
0.01811663856155246
-0.044157199618536896
0.00022717343967157855
0.013555680259724291
-0.012598930501726578
0.011490379946122566
-0.020133512183356905
0.06676747429402802
0.1459551542145499
0.017457636166961832
-0.0685103101613421
-0.030603706395568243
0.048586724846223055
0.0260983229154262
-0.03187772168907371
-0.06343321791455124
0.0522937317944079
-0.12101804031216659
-0.03683443960951451
0.07215367967222339
0.02756193974959308
0.014074444314524688
-0.07810702713914962
-0.049730211522951664
0.047184451066803565
-0.0450342526033272
-0.1253462301468035
-0.018569199074005217
0.02324629971621388
-0.05090516516522297
0.02215755209490704
0.0005275850185729895
-0.08282689485850803
0.02572447211070908
0.03658384416338022
-0.03410642393057481
-0.09810406792126994
-0.015742517931080096
0.06337709318772476
0.019883060692283197
0.01880754097691431
-0.01577349801334926
0.03393721933265048
0.04198379882408528
-0.016420245864273843
-0.029114250644297564
0.05939815027939973
0.40019294864474186
0.9727893602665013
0.4291598538277692
0.12608278933638586
-0.04263603511252373
0.012118814354215805
0.028991814262992712
0.02672169721916208
-0.014338305820438269
-0.05771062175760967
0.036761298334132234
0.03397836983352647
0.018406894431412732
-0.02770341385167387
0.04121826958568238
-0.03135270687482525
0.035415248122008657
-0.046641525285181354
0.04352970732525024
-0.11298416981722362
0.03180680616303928
0.05864442126721492
-0.049724721684007656
0.05504688478798023
0.0265682783187287
0.021627061083809872
-0.01593269088361679
0.05324597830839213
-0.03431770891297901
-0.11208183986422766
0.048314793465999206
-0.06908053705356697
-0.055199134950246365
0.010621387242982724
0.014375112209989788
-0.010795414001459539
-0.00046139313635667014
0.017896379109919962
-0.04298820841381767
-0.016631862428380977
0.047403529961500206
0.05699989005461042
-0.12611704251651176
0.019678674818966728
-0.02868577129879389
0.09311707818767696
-0.040988755183884305
0.0011648433992773005
-0.014196410407243449
-0.004838251519411493
-0.010154656350164106
0.02986707781574477
-0.05083731179740203
-0.08673077502980425
0.008942261689377477
-0.009746429032832613
-0.05725372703596365
-0.056406717024389375
0.019879917125349974
-0.021620774272821254
0.022120359745815804
-0.014957123365782915
-0.04432669597045574
-0.018166986441349262
-0.018824048711499026
0.004314607300136951
-0.10474984601285452
0.031448124844897625
-0.00022172485857071883
-0.018625456608221666
-0.06509701636600632
0.012910839402445647
0.05055805101300587
-0.03288124455035418
0.042054398361196975
0.09507442155307269
0.04918943992171987
-0.07434696397047257
-0.06324457743220545
-0.061993467209691136
-0.08050743560801255
-0.03493658797005816
0.06569113318933784
-0.016923987310904606
-0.04411956244874217
-0.0610500735659593
0.051298045035536415
0.10925709163019302
-0.0034245972544404875
-0.024521995413728
0.024603196962082977
0.006515644128593932
0.032672683896431694
0.02143452268989159
-0.06231340298617632
0.0042398382427143695
-0.013929043840149105
0.05131726751474175
0.12940963108302433
-0.058722084202434625
-0.05808712815614057
-0.040678224545482644
0.020955774437983476
0.04021688137268058
-0.011064744512503132
0.026840715770936042
-0.04489011700381627
0.01766544637426088
-0.005600577479323671
-0.07437020210784867
0.051760255443494954
-0.018821132177274758
0.0331536250923285
0.01159632775400753
-0.016113759365791746
0.02844917656058071
-0.026275048558775993
0.00894322194982245
0.004567708049558948
-0.06802385315375696
-0.05735804157589658
0.06367011681014792
-0.0713061535033141
0.014620043335465863
-0.017028087291232508
0.042114351826259756
0.025042387019489555
-0.006235367200717417
0.05614638150326262
0.027949276856893076
-0.062487779649318356
0.08868286977969847
0.02924257699442442
0.048636440358835825
-0.013790498357647805
-0.017649714184614727
-0.028580922686127764
0.0843265015923497
0.00527640672388028
-0.00548297601373284
0.023519743600573406
-0.04635171078418283
0.0663983436950981
0.055305421131349425
0.027366165567271714
0.058868207172788706
-0.046357993316246876
0.04275571841838211
-0.040549556386475526
0.04282367975279068
-0.09052198844305322
0.02825585298502062
-0.03845009274418585
0.08522556978220756
-0.0818285532835728
-0.02953657941439319
0.05812302440492953
0.047364981493389725
0.08112912318419577
0.6042346827517591
0.9558984182650049
0.519090554077606
0.14321688609089553
-0.0702936253705314
-0.03070608650028211
0.046489813757108284
0.013613301227385058
-0.04347242206774618
-0.07713500286724619
-0.02384687284686426
0.02184749015494188
0.041559263606093966
0.018241022724752313
-0.09705011701069795
0.09917314513830947
-0.01226788128846542
-0.04601814215173135
0.014034506026478002
0.05828497472236256
0.006680110760754247
-0.01821274151584158
-0.0665311325285059
0.01669268029811678
0.054632680292009184
0.08740931693028654
-0.03100065673988088
0.09783463221220388
0.005093671415225887
0.028752109746706916
-0.0152124840305569
0.00802972818760784
0.030380230053816085
0.031989134505897035
0.02137746663149105
0.05360382801967041
-0.05267751444181215
0.11697415769932125
0.03328204768563119
0.034590491574312765
0.02915681601686392
0.038702349072021545
-0.04566351838675046
-0.007316813960417362
-0.00047925019483380785
-0.07102103429068882
-0.0688187869382664
-0.06233191360414523
-0.014938923460115766
-0.07635729732390052
0.0031036273913199516
-0.06656522457055694
0.06685621264835624
0.09548248540115052
-0.010775437723127586
0.016730863647166423
0.034143632575670296
0.05337222776758619
-0.05489263191816303
0.08600892910481106
-0.0009650890538229003
-0.01970299768533465
-0.06556295729143986
0.07792853865443367
0.03058860266536307
-0.11675734854152431
-0.036829296007667024
-0.12385468151028634
-0.04162494056962672
-0.030633108966130293
-0.11531194100684782
-0.10353731336620053
0.04842970603647027
-0.03182608737726538
0.05509341842815511
-0.00861429022387927
-0.1605887545124185
-0.03991131018887555
-0.004361256690289437
-0.0017002817904204555
-0.03313112996457564
0.03261726130345804
-0.0389023413305042
0.11837405155916887
-0.05352213884702315
0.003995473623282775
0.09993120971092131
-0.02224447592387406
-0.0050366025444806934
-0.058700336006010156
-0.12459970822577658
-0.013648815436628865
0.021195734725328413
0.019076616337499904
-0.029512850205397675
-0.028414485455937367
0.04963956949505623
-0.004527863571773171
0.02876097712905685
-0.007426384785716864
-0.02100213707525013
-0.03790537529423074
0.08649631390540248
0.01701554153827294
-0.04606731415815273
-0.0476081032914459
0.025508848709036483
0.031056243636991998
0.05897244400979769
0.010550793595615213
0.04114016838519588
0.056779375038019775
-0.018578926049527423
0.03973511633524743
0.01949654196930599
-0.023945516353558415
-0.050551574944216374
0.044626216347567305
-0.03577213448477958
0.03248558371292761
-0.026751257484684474
-0.04892839662305353
-0.03261537652510986
0.07307250823485197
-0.06843924975628152
-0.012330730228274774
-0.012121613772129856
-0.027072661386713395
-0.02942377124408817
-0.061629922337424786
0.023553468368552283
-0.018308985045332276
0.03372184628877767
0.05913692143364335
-0.02890118899107812
0.04095245108674412
0.001292899549724902
-0.008162995714418397
-0.062047080808013834
0.1415407318718309
-0.054437003349630475
0.021417109992968923
-0.00019249042614188433
-0.02715130880666518
0.01021243586779619
0.006562484403126899
-0.07027039875590874
-0.04381884970041164
-0.03739866167613453
-0.07311643393397976
-0.031150378318221397
0.007483672036643904
0.08783147762142417
0.047643317245897564
-0.022183547175050118
0.051974472598620605
0.13847288942661828
0.4961821096296807
1.0585839427435164
0.5078951841766034
0.091572046109595
-0.02356035457409599
-0.03694209699298977
-0.04554617213624171
-0.03625543609309651
-0.028573276509029185
0.06372173898423754
0.005416462255057239
-0.0288351431180333
0.07612142583335296
-0.05392208605730803
0.11039382008477445
-0.07495953846592926
0.026191370759611733
-0.07168579305825637
-0.08792417569089654
-0.05524212665569159
0.08170085986617848
0.013216821832277632
-0.0036217774905522577
0.007281235050723776
-0.08276826159094212
0.024999385629433525
-0.04019500803590875
0.0513677536570144
0.0729915103000164
-0.003195070127460026
-0.01307594090844799
-0.014126197413329891
0.0016241956238419763
0.053447400742680555
0.07699906577212565
-0.01496842563364846
-0.06622880017910071
0.022298984145156714
0.06788762504657189
0.03176773487528583
0.017430929991229287
-0.04666107281983563
-0.0027565620582177246
-0.03326753065274362
-0.011647068319847957
0.02970152972024559
-0.0035000132861094965
-0.022057777505503855
0.004558391927219983
-0.008726946558086668
-0.03216323853681776
-0.032161783864701976
0.09116363413409723
0.047253088480920705
0.0232047174488182
0.039937387616796126
-0.0017006413974879433
0.08755284717210451
-0.04908295304330785
-0.024045280436366175
-0.11792671051718269
-0.10343530519833871
-0.06372656774052414
0.030588172546964172
-0.041888098483874876
-0.005364648145675166
-0.007086473324569906
-0.05915914259283015
-0.07729665539524795
0.01438899532994298
-0.06077225253024113
0.03429741342286765
0.04299662286873373
0.03237158019254493
0.08188347763777182
-0.0329942039496447
0.0018849421540320242
-0.035795657857597675
0.03670869151944276
0.026608583645616288
-0.09514134008335728
0.0015318815470226977
-0.005409882877287467
0.016551731231716427
-0.025073833396208806
0.018435482132948766
-0.1594255368324594
-0.10486021288298164
-0.023212515091720252
-0.027937759308726547
0.061387362755098186
-0.031045542369047052
0.06374144368475214
-0.06545001825948564
-0.016923737477090913
-0.0471740987561384
0.12033762534312548
0.05327719522181286
0.0022032318665319473
-0.17992133615218464
0.08327427319824782
0.01900077101651571
0.032574811184650485
-0.0682265486675216
-0.02315249787279855
-0.024075219922237052
-0.018627323529737304
-0.00259676303303615
0.007855301209494358
0.014432942848780307
0.046740466661198674
-0.022254527475976046
-0.08039171371679894
-0.023874264315989296
-0.09174262364216784
-0.01125198834947845
0.12054317324524899
-0.0228780104901433
0.04602456146399959
0.043711037436717184
-0.05876524040983116
-0.059388766182660924
0.10808109685277567
-0.03858369731066018
0.08702107176164434
-0.07907089387451079
0.02322487216962601
-0.06360079203602859
0.025793614776878394
0.0626604114774901
-0.013002896828870174
0.0352917540495693
-0.052528689427173106
0.0014964269837567316
-0.0408374775215791
0.008698389327747231
-0.00471819232749566
0.09935330439086114
0.051953229281831936
0.013624101726758129
-0.044860336844746204
0.0028290574443445046
-0.03282246337169017
0.04097052063040895
-0.013021714550651167
-0.06271660908201228
0.027511699566290307
-0.03175701634049096
0.03182291775587131
0.07196622842913707
0.039227128961656206
0.010361860475264493
0.13983986702519977
0.0101554503434048
0.02850118683572056
-0.04544667998102927
-0.09460709891811489
0.17262498701392592
0.5525916515791369
0.9251539329950359
0.4837528212078262
0.09470934982092327
0.06466212181040056
0.013146180675393386
-0.0041823668258104746
-0.08729659700134074
0.00614372146051007
0.019739761533911403
0.014312524957064577
0.0693329981692794
0.03430169306142303
-0.015258488379599283
0.0051270015677657025
-0.041824272526447145
0.044505730835649925
-0.026342744321687497
0.04162361326393078
0.008549144770528726
-0.0481609650610201
-0.016494581744507845
0.039156582273442216
0.0065451300413655895
0.0022879171397238666
0.12175868458369724
-0.002585934798789444
0.02481290904668533
0.010387884049484257
-0.0642138954515701
0.05173514040631594
0.02619166919343374
-0.030486730946764712
-0.01450785792606322
0.015376143994647831
-0.050207999060474476
-0.031232823323602246
-0.06397598584001878
0.03578318563418156
0.16629579765292732
0.002203830254495768
0.025336378951773854
-0.06394552931584772
-0.1251877858727872
-0.12000646595045417
0.06610562572181448
0.009027134778320326
-0.042322431169761
0.030543464066867296
0.01859219432108033
0.02724470146603394
0.018718239287644017
0.06591318058421604
-0.0212723602463335
0.066217320547485
0.014770471901155671
0.0032422294852314567
-0.018282569312520047
-0.0029322871070391926
0.042168776132317606
-0.014818321985050212
0.08136452610495085
0.05943337644316992
0.027121976522810204
0.04997567862303567
0.07719544572730919
0.009650326400166581
0.01013216247252954
-0.049754762797346995
-0.019053264860152894
0.022021724343365467
-0.00606622715471611
-0.06119994804393049
0.027607596300064537
-0.07487730835854871
-0.02195660429951654
0.08262873598015273
0.07276991036010434
-0.0024653169918337336
0.024040048142257325
0.025823619877453498
-0.0018387805739326177
-0.08189010228486368
0.013006309829565266
0.06410753326889196
0.03516493364820188
0.02304933789341964
-0.03928465793062655
0.007960827749411278
-0.04120991285468107
-0.034477767129711866
-0.04926162339580744
0.05525359918779249
0.015405587522476462
-0.006565046587698177
0.04391953588897162
-0.0003072628965417985
0.12207774778843324
0.08634597231896254
0.030162383307410313
0.028387947981988817
-0.031138548382408045
-0.03643292930175148
0.04895871101629389
0.000610899064171944
-0.0097194848106615
-0.030421222004385504
0.06826840096681883
-0.01279729763355815
0.0762396528968074
0.00970029454177976
-0.012755218191178553
-0.038488566961672716
0.0036591847462060486
-0.029336733217267826
0.005480639661936127
-0.023583236352327598
-0.014611567789924436
-0.056770520356598735
0.13136600487660866
-0.028337931127119034
0.060549661043542424
0.027560473300408384
0.09422117839974328
-0.02538506553534905
0.028990552710122894
0.018653958210913396
0.1041669783086403
-0.06956427240084542
0.014780943571915004
0.03933526634293738
-0.036318564109673164
0.03223590532087886
-0.08730929934615703
-0.0843401078097464
0.04463175732098193
-0.02737715347691207
0.021973538649720216
-0.012294105518223733
0.049394734861302275
0.0022786307583161605
0.04320721807611846
-0.14825278823965413
-0.043912157999665295
-0.07008163887283829
-0.08372303833717534
0.01018186834823589
0.08953571964932638
-0.05665573173604959
0.017234418998693407
-0.09544318002028389
-0.009684249341232631
-0.007711265899623002
0.049987171258497026
0.04536977392961471
0.13252789493329215
0.589655487122418
0.9774963172876822
0.5540031416354732
0.11586909246725796
-0.06614650018670329
-0.0017961577730492941
0.02121707246658258
0.07225926244174012
0.05507186914500013
-0.10235754115396145
0.0022240619187785726
0.018410073647737314
0.0015357945860572835
-0.016438754865612696
0.01200908906744137
0.05632382928117272
0.09448296218160429
-0.002316346066074232
-0.0110752195809619
0.02267558234003511
0.12420884715861857
0.01857012722514711
-0.08077031167632666
-0.08333918884379221
-0.003931535758813288
-0.0017544734976563784
0.028084378287147917
-0.006722391672638825
-0.04645191586874488
0.08109308779516473
0.01054274851440746
0.0007714331985458153
-0.03324530367879009
0.04967817095817474
-0.0243225103093946
0.020819654529778634
-0.11051552627423776
-0.06060768920883724
-0.036877909034826184
-0.053011562286896255
-0.020515714173420754
0.008928301817022085
0.005024058538522983
-0.045418131171365755
-0.01263611158173558
0.004895907410395664
-0.06263862062361701
0.08786798816652625
-0.007586080020517607
0.0897404757527305
-0.0896962516116843
-0.09174528475741707
0.02537985839917696
0.010076966857693666
0.07935072411055176
-0.007946890746229448
0.02787195725041667
0.06468382646638388
-0.02875392731718331
0.08422509722541335
-0.0638033124122645
-0.031404280342258596
0.002154052521652782
0.05295981982232342
-0.015111408864094088
-0.0545610897062111
-0.0036643254798387178
-0.0612109794832523
-0.002540388800121503
0.062110557334700334
0.052934835094447664
-0.038151938596642995
-0.0012966675862312097
-0.0291850822631063
0.005329792409670922
0.039274890371647574
-0.056578190447435055
0.049161556660024565
0.045510816653637896
0.04405216263106465
-0.07168701342277886
-0.007797876994165967
0.038456681967844214
-0.032336431051489783
0.08086259235645926
-0.04436690830508211
-0.03220420324160761
0.015229375586980832
-0.02154406449420071
0.07511280317064561
-0.0038187166531635053
0.03132556808191807
-0.03158701201448775
-0.035836709881095455
-0.011432979340589969
-0.010366936098455607
-0.008927095989657598
-0.012351447887324618
0.04344185397745004
0.08300633692827032
0.004428798928858447
-0.06135518202758203
-0.0076377605734481244
0.0080905366563547
0.025222855176331334
-0.006427244432271258
0.07283768887898844
-0.03307082036348891
-0.022039029716858262
-0.028217412775003833
-0.020209894438489744
-0.08442481414171316
0.028060243694891324
-0.010222382141075133
-0.005518890511818402
0.05223767810324331
-0.017725073068902687
-0.013960827640211539
-0.08510048846767854
0.04261512430500058
0.06231337173563093
-0.07950685577414464
-0.039952250796126534
-0.03061055504819172
0.14655115647276332
-0.008736915524121357
-0.04482799934482048
0.014442550871299531
-0.002326179072977321
0.021466516763426993
-0.0051622084248443695
0.008635399579224752
0.003778398642551262
-0.02955563022587329
-0.08616948647852382
-0.037828099250760944
0.0019174102007645931
0.013864395080204584
0.03152848087589549
-0.030799120477505344
-0.036214984836641824
0.04075157402361323
0.007558922712364029
0.0702684794776334
0.049424953918674304
0.04960933901506513
-0.015269236503900444
-0.028526153306296428
0.039883808718929166
0.007485710244096605
-0.01859562175498283
0.007185662971451525
0.007954381531056763
-0.01440167082445342
-0.017145530917717453
0.0881351818858313
0.09295545007875877
-0.05038825560702127
-0.07523133853655843
0.0918613030674554
0.49977768870718403
0.9663667230723233
0.5489365413273509
0.13106388193625262
-0.04914161322078453
-0.0019082688148902068
0.07076403173598557
-0.0007014404278316279
0.03353237254896823
0.0595470069470607
0.014547546863321695
-0.007301916050095914
0.027920272443443833
0.028762619735579316
-0.035430412359561396
-0.008291374062288111
-0.03190356485610483
0.08054218245632098
0.01989789954682278
-0.06942964361334716
0.03575327286337051
-0.050895724424694436
0.016557553478413114
-0.008695128158487948
-0.025525811489882005
-0.02428846023624162
-0.015247404289066666
0.06417509941703477
0.10416373445236682
0.03404534215197595
0.028328431494723014
-0.061544927653405725
0.09632498990318951
0.0658094563785426
-0.008836318351057066
-0.03702843838290983
-0.013007221026799737
0.022829767040021546
0.022262628754037214
-0.029618783829013187
0.003105848265771766
-0.042063245738813954
0.046954313954638324
-0.049048998472248556
0.02984249714019902
-0.07731854781882637
-0.016443924358489775
-0.00917152585732111
0.02008657538739339
0.03630853854456562
-0.10273397015338129
0.04199847544072991
0.0741201822932681
0.056743932602007545
-0.035379621048727494
8.068866087954797e-05
-0.0731352688217206
0.11414135150090624
-0.07420474225188804
-0.020991686981797708
0.01530073629367359
0.004030215952846542
-0.05772804155014332
0.0038054074136788297
-0.058105875132086926
0.07045356798984334
0.047583074962454786
0.05451428803268136
-0.03190968861785159
0.019479812320357268
-0.16852786330556124
-0.01656570107047421
0.009771387879359515
-0.01835472059943488
0.028261833161091966
0.011070642208612372
0.03302074204718002
-0.09743506417246359
-0.008431397873440409
-0.012228050461601359
-0.019514491914510254
0.001705866826980091
0.08777198342171925
-0.016644401617324684
0.03741733349644821
-0.0012157491081234212
-0.006187900861698279
-0.02808394102595359
-0.03849550477962023
-0.005137095747844243
