ecg
-0.006240069125048639
-0.010022376842406214
-0.0059585333404545355
0.013114956877901785
0.05088559190367506
-0.017803062324267076
0.020543597873589056
-0.03378256050246895
0.030637638873947083
-0.02485318275195317
-0.03878984211778777
0.07263289159389387
0.02547414008843256
-0.07038589641646195
0.026767198492367736
0.04729662097105014
-0.03584179761293423
-0.014410231402313303
0.021805425744439718
0.04106978012358029
0.04785083269421215
0.02830533221563865
-0.029841786825018524
-0.12689442487802416
0.0010042890562312297
0.03405027755157657
-0.023110672764351296
0.040331707205620994
0.02407305381041662
-0.005742486651528481
0.0016826786144620246
-0.015478668554420963
0.009954840076362569
-0.06400633405826538
-0.002820777217999603
-0.048114525518188296
0.02908009406412694
-0.03139098743682749
0.003467337695852817
-0.008309907836906525
-0.0008565150599068733
-0.009996175884475033
-0.05132195666932163
-0.011142561077540716
0.01254768679506156
-0.01962319697072673
0.08662007109417842
-0.06140019243927667
-0.02134149053627203
0.01630933398519399
-0.05546873905887807
0.05510548243746943
-0.01947752203390298
-0.01720347683882557
-0.001492004912082806
-0.03374647138490593
0.063599114128233
0.06281318803463772
0.035270061436745825
-0.011232336075211137
0.01229484441604781
0.054373174157060666
-0.011207687461492656
-0.08497613494617796
-0.001966603835504686
0.05863906675760247
-0.03716222285102535
0.08405778048860928
-0.004230388260244747
-0.06201794650559407
-0.01728355580124507
-0.052370755184713985
-0.012552211445908191
0.03173298617137112
0.014773031062590928
0.052644953726476464
-0.03108778856784379
0.06698741384060723
-0.0017907446722023796
0.14015943098424039
-0.05639043533950549
-0.0328622456280952
-0.008430141243459482
-0.006565123567676391
-0.06682947882660549
0.0047293325534608025
-0.06858888577134269
-0.03746776283627508
-0.019177950572779233
-0.00011098799113093636
0.056319068367534655
-0.00836205163836196
-0.03677457692026219
-0.06734649511490202
0.057045612033218576
0.022417065756660387
-0.07890221677384757
0.03449521824857795
0.05060206162931025
0.021603938731616795
-0.004066878463524032
-0.07198752998395687
0.008882404665404907
-0.03587790372284528
0.1048960850880708
0.02848570042089161
-0.022067992465539896
0.004625059102030414
0.03745936972060906
0.02375106660086414
-0.024184168875067483
0.04046955392877922
0.042898496942188856
0.10198993740763851
0.0013740916117613623
0.01702212951611129
0.02880037300739778
0.100138432918857
-0.015714306891416747
0.011290815858148923
-0.07044695313884773
-0.028137876743434816
-0.00045269758261106243
0.02414593001864362
-0.01418527618519893
-0.026578414766189398
0.03273471023643632
0.05094079268155476
0.09157830725120356
0.0019131579666816782
0.004569348852557216
-0.04656242699550862
0.0008334732656755067
-0.02423014927916795
-0.08251773353089581
-0.10080282917644022
-0.03318642354083441
-0.0783451457337859
0.037112353599610466
-0.07460328885925226
0.09164118764413963
0.031397086227804495
-0.036626827099588845
0.04218327539528439
-0.019552393131036138
-0.004955887679925857
-0.03385383540269644
0.010865150375693852
0.0002640422609522059
0.05077628375761978
-0.014340467166642196
0.13967167198765176
-0.0111464544382898
0.07902988703470991
0.44883865582417476
0.9976534283405532
0.6201683254928542
0.1582339236350975
0.0038359360115654572
-0.02858615193325131
0.017321917388451426
0.07769298505076386
-0.07472191841439928
0.08489512743551103
0.06621487714764683
0.0030933945750422115
0.0028506718499811193
-0.05119420231157421
-0.0053763468665216215
-0.003560288278329011
0.05940651751991713
0.1518528322976731
-0.007648039857211826
0.0387586265862273
-0.020402752019756318
0.041729269466698665
0.026656599874698497
-0.07507676077796942
0.05060043835931364
-0.009181372039609984
-0.027455112151461472
-0.041784930003217785
0.015441661591202763
-0.03995157318446163
-0.01505588429123226
-0.022302033560382337
-0.04951112364570492
0.06853289383737994
0.013623166372732943
-0.12150616980465415
0.003788348050567332
-0.03415994853544301
-0.10810672558655926
-0.029408760090276855
-0.02309537812961174
0.021756458355453305
0.0035409942969578077
-0.07830919514070961
-0.029642139392238476
-0.11643577772684968
0.0041132120380521315
-0.03758966492073194
0.07961162668306684
-0.003945060491331542
-0.049170872524818034
0.0135962966691215
-0.05549109757431095
0.005527578220655779
-0.005261833240799325
-0.020660269336385106
0.03374702029574514
0.005812057602010997
-0.005196737323706009
-0.006530632308711571
-0.06262787861546254
-0.07587186314021195
-0.003222293251854835
0.008672326562901973
0.019000488897680162
-0.03286004545954881
-0.043384593036290386
0.06643060357410745
-0.0674428245613824
-0.010605616672029763
-0.026622854525921953
-0.02219062519681941
-0.0272615451674937
-0.03809766629644056
0.0158195061719528
0.0650771233089501
0.03858047176474533
0.051355707326296476
0.02082335454414362
0.040329305254087594
0.09047804873169474
-0.03990175613249697
-0.06817805492243659
-0.04768242627045081
0.006010846602692005
-0.03995518334208047
0.005801186153609458
-0.06419301021054545
-0.052460529983101536
-0.014815079128745363
0.00017770399306000896
0.06607452170493139
0.03362680379051918
-0.0383794625643919
-0.15443777830709582
-0.07754235866858891
-0.1179480994531007
0.05318034618377576
0.047329779278269674
-0.053619908060437926
0.023019804531797583
-0.07097040943228206
0.08242249016014173
-0.025253123162898874
-0.041387345691962736
-0.04305703660993475
0.026490640635007674
0.007100641070662216
-0.005712064050395241
-0.017761209445715992
-0.009925870313685282
0.022377720427813195
0.01708798779566131
-0.001841389410646779
0.005525005561725573
-0.044934698913939364
-0.042819353144381914
-0.02133798708930135
-0.024156776791740792
-0.02097739078699279
0.0035311727789838192
0.00960933469063446
0.008014896045699216
0.016398263664727155
-0.09281769723767264
-0.062397358509231116
0.06985014258054896
0.02896258693956194
0.019688938218532088
-0.020972790671536342
-0.08700128139030988
-0.018502444007998536
0.007970635679007583
-0.03229954251068065
-0.031093143086384046
-0.025091489533572944
0.04763452920474842
-0.03546690589246487
0.05555940964844533
-0.02348503550088777
0.015268778561228241
0.10605758544262389
-0.02836290505298222
-0.05852303124409419
0.0010746084308141588
-0.058597858352629845
0.06343925997208556
0.05096164643621705
-0.019119708149521825
0.02481543692586509
-0.002194813449449678
-0.023488004878507877
0.04283972838692479
0.008782519846715995
0.0019515781614151753
0.001496614427716241
0.09902022698021402
0.4608838334240059
1.0137662165327472
0.5906374130289868
0.10885725641687377
-0.0421951171616092
0.08398800988833878
-0.08267611941425498
0.027907255619603014
-0.03804693346680629
-0.03379348416432025
0.0429466715066423
-0.09379762711030776
-0.0885641474801187
-0.07239711420184174
-0.014063911104400357
-0.059105200033957805
-0.04380410017405732
0.02685900580794648
0.013342632255987497
0.07265679936706775
0.007423705488500052
-0.10071434838510768
-0.013307457687094473
-0.026788164261221676
0.015166869817307247
0.019944980908489666
-0.04421237016703141
-0.042355682699772204
0.021363390895290636
-0.009350879951273356
-0.03191849150544761
0.01757195290385405
-0.006357891231018448
-0.05772963805337849
-0.022367863284526068
0.0026028834509525135
-0.02713639455935542
0.13358010752248756
-0.07450805325880826
-0.055518971523576204
0.03552563522373528
0.05936155903418264
-0.012984790450229359
-0.03254310814741294
0.07025782251595096
0.002232893433260913
-0.12018452252815746
-0.03652157257435043
0.042004513863971235
-0.047289565116209735
0.06581595109256937
0.01982085322103727
0.10168920256628076
-0.0016431895608528934
-0.026253403807551895
0.022416367900836353
0.02154765854795483
-0.08848306543897466
-0.09492780646870908
0.038195649070008955
0.019459009387310183
-0.02578965825983039
0.009706416049020339
-0.042351920680620075
-0.02625762990845866
0.0718088140523586
-0.037257603386279536
-0.02533095988172899
0.006892700182618974
0.06425241490415405
-0.028482708627167366
-0.04383027908544984
-0.03515036786090954
0.0017168794982504272
-0.08672252530799274
-0.02547784915748725
-0.10079061312691225
0.05767963737576212
-0.06342965613762112
-0.05500413194464568
-0.013040942702410643
-0.06306898457930088
-0.0868971308599904
-0.016547663817416493
0.016437669096016554
0.031083450579684847
0.00627226959894641
0.03864895368630933
0.0059199296641627925
-0.013157890438182227
0.013759598537517938
0.07490092855468095
-0.022998340632280394
-0.03740652673655417
0.015058480232616299
-0.047778978985001656
-0.06908353494663937
-0.0064558072229343524
-0.015333624465658169
0.04742262284752238
0.045846989557620996
-0.051642280375536566
-0.07910533255196776
0.02250830211373356
0.01505304205633331
0.005843549805782488
0.06845447876672624
-0.011700056013608576
-0.009969698079698573
-0.02052855552080494
0.13684516249999687
-0.0404887197962327
-0.020774856906492115
0.03419779541593446
-0.01747951424547207
-0.17704852295779547
-0.03787920617115581
0.019541025166453764
0.07422718747578091
0.11006000101989447
0.02019625663832045
0.01733861390194867
0.06469565932860598
-0.01270560316733773
0.024176206586327145
0.033087689053157184
-0.052248068223162775
-0.00840451901177608
-0.015643586745643832
0.027660904715432023
-0.03895115386701858
0.10693219520191094
-0.0012887112070677144
0.010770256657772655
0.022471500868431665
0.0044087489751600695
0.040956447622912964
0.0012191454830642696
-0.008600200144928145
-0.013895834847024014
-0.03331534424810417
-0.036329680107435515
0.0018353110081410044
0.04694610646140264
0.013688094128099888
-0.016389267529426498
0.029334240351143556
0.023922242348650497
-0.057571133406769386
-0.06060251191115499
-0.019089731228319747
0.0837080327980336
-0.06098094114790995
0.03971136201793729
0.030908301395907268
0.021611767636612714
0.04433388658690723
0.02705760571217581
0.10823831614928665
0.5320812462904491
1.0241922917364594
0.5568880043451657
0.1626956881876529
0.014475860435863033
0.049319845580864524
0.0018892575686379341
-0.03241466586776215
-0.031428508294173096
-0.034139147122753614
-0.0315205058280418
0.01685344669685951
0.002200218947528242
0.052183841051438
-0.05417036598192785
-0.053089678799952356
0.014405750787324673
0.030101983936192955
-0.01740275013463998
-0.012453531242339992
0.0009730735760002592
-0.05912139961973957
-0.07911137682643693
0.04998040455274579
-0.02658834612870798
0.0344382860009977
-0.03183933197261341
0.04436524650421875
0.05283167344371048
0.05128881698112497
0.024316726064609114
-0.04236271555630278
-0.01853289297213383
-0.025501677763810522
-0.06477766668138829
0.09843694476370862
0.02754073644714089
0.04038138116095424
-0.07408427041688674
0.011310542680261848
0.0316020197525349
0.04297046965380559
-0.029941527519781897
-0.030705989317286256
0.05066146968724042
0.007743918837946545
-0.03376487027139935
-0.06537423755830607
-0.017566620126567185
-0.019341846058784615
-0.035612982657230126
0.04111617115243914
0.024077373789352884
0.07820666887072147
0.04110588360845152
-0.006018317640289585
-0.054585626725559167
0.002827337916914583
0.02699047300050086
-0.015447203803163785
-0.0036318796288043174
-0.11947912843605064
0.04097903072302936
0.05083973733863866
0.0931535933848161
-0.05440067282108674
-0.013617219791137128
0.0708775531473494
-0.015243082930461763
-0.02917845896696707
0.0759552003080689
-0.060488261646422105
0.015020934005388493
-0.04840714837501489
0.03307018429232763
-0.020610977221734605
0.032945222304874955
0.058520529737884575
0.03807218673783288
0.008385588087707861
0.016556952230236895
-0.050794450606567766
0.07706463647594897
0.054845930844931584
-0.054801879159874535
-0.007147111931043779
0.02402607957273216
0.022632993445327612
-0.09464434605062765
-0.03903314990763944
-0.05829500170488973
-0.013835150743903702
0.05691892490775852
0.012813414643072696
0.01650611666549577
0.03817860694314881
-0.08915767826016657
-0.08811957207873278
-0.06439845798280945
0.09051850903796266
0.04592438186374291
-0.043610017869185294
-0.0589707831063377
0.02378940370382704
-0.02558920736270369
0.042240706093695214
0.042924871521516604
0.0630048803803458
0.023878823535874814
0.012172656637975595
0.05505213166296383
-0.009643458374751761
0.044008097571158956
-0.012384775144825173
0.015737376751324403
-0.052219498408554915
-0.032995743134365284
0.040542795074082004
-0.005461980980736226
0.04232083318146752
-0.032652750754297244
-0.04413243783326254
-0.05460365058309899
-0.03976027146986907
-0.00796243917697799
-0.03735894918947449
0.05096449939979292
-0.004017532853303309
0.005270618799211745
0.08635240627892321
-0.0697317132255066
0.010604396820737726
0.0011872067521509577
-0.029733772844507574
-0.03335747857834775
0.027901932353872894
-0.005658583590198772
0.009209148837897413
-0.03858491134112724
-0.030208040403558168
0.07387635844206045
0.018649641962040744
0.0002529937946251302
-0.025601460496138935
0.03557069876548232
-0.052925137610141
-0.059440279413590424
0.08628283856019195
-0.06277627465192123
0.06608443387488026
0.005478862821980778
0.0041585897298316256
-0.02576617361800297
-0.0185206705309118
-0.09666086994149943
0.17403104778854492
0.4899705311685253
0.8987883663694947
0.5723695251865424
0.04259959160881473
0.03524907992321317
0.005903333612015199
0.06705406064294696
0.11619772476488087
0.11467830928043975
-0.07484644456702785
-0.032350490668558954
-0.019940586290931105
0.011896980881227006
0.09161809435717172
-0.06433342299425862
-0.0620536091822544
0.088486440016071
-0.038518729659037604
0.05581229182391911
-0.06992290484487323
0.04067564751790744
0.018725738697811162
-0.15184191869458347
0.012377984004648873
-0.08677634507752267
-0.013808552085426435
-0.10375100396107427
-0.08923762351240658
-0.025979822377811008
-0.007050369333107229
0.03807967824691256
0.04166666703098607
-0.012566935904858082
-0.07067264485537499
0.03198001259108817
0.06480143888844402
-0.020359561702791466
-0.04317664121006359
-0.03571103690452765
-0.006201426280151067
0.039815601989497885
-0.026917362181848082
-0.05397480465503162
-0.015946395634238296
-0.041681864683548175
-0.028684749670692657
0.05466213222992808
-0.002232877780387923
0.009099978486443934
0.0005015862639507305
0.02064389371645627
-0.07178657483247126
0.01051108298273368
0.02053910171115105
-0.03788125661560774
-0.004600441329716966
-0.05146174386006557
0.002436378767385348
-0.04950845248226695
0.05085271910151243
0.028455257165772442
0.002939167223865536
0.004894542174878947
-0.019981524948278373
0.09870749345315599
0.007784211550744078
0.04087024850123775
-0.050592078281469034
0.02461180345496272
0.035189254401256885
-0.04968238387281759
-0.01212673232567557
0.012753303749175028
-0.0354989878119194
0.029317322339834057
-0.08091114823337167
-0.037645259186169205
0.037945482841330785
0.0007188345107193289
-0.054859806652738034
-0.008889614675394043
0.08590908459635453
-0.030755248392498387
-0.008376460567103559
0.06907531826616616
0.004389196165945262
-0.003553311264307911
-0.0527634290369797
0.051305441446614614
-0.05615644973279819
-0.05524309328414554
0.015184736259921838
-0.021201910023535008
-0.04758466065851357
-0.01061302089220105
0.01676333086801834
0.038177414057140174
0.06283091592771504
-0.030000886042412175
-0.07672315220577934
-0.025084677681879955
-0.008817414952748204
-0.005507165270500459
-0.008688526890895769
-0.05220515808874737
0.00752448657309049
0.06483453214822076
0.0840480661493565
0.010722085123570924
0.0382207589786526
-0.0098149759355393
-0.02571417862923844
-0.07201217652773247
-0.026509277866300647
0.006710853173339837
-0.011411525461393736
-0.02099041420166103
-0.049514793947711244
0.06750284499040798
0.006340526860882003
-0.03995974663323415
-0.029711464277090396
0.03851782347486744
0.011025104894173327
0.016050733174014637
-0.013290115477010906
0.008415575664992883
0.04815219289947268
0.030884094813418746
-0.0034740834090043063
-0.04247929631354755
-0.05777082404340245
-0.0026976267459674266
0.02583343617648839
-0.10661709374494939
0.053119364711112144
-0.1484763965279795
0.006545332252165018
0.021806508619983164
-0.11317256960955964
0.09460116663888357
-0.04740518298338761
-0.07673457263762079
-0.049509192320074474
-0.08587434633594401
-0.046190714534390796
0.028724730237304485
-0.05359997925598196
0.03885646659153527
-0.03083203303170101
0.00016703502614414764
-0.031791188813751786
-0.054626545993785774
0.017873902971568358
0.08049834561815061
0.5197390494629445
0.9209050643976299
0.5479541106568577
0.16681125691576693
-0.10209819869030673
-0.038004070481630285
0.10267215700508968
-0.018202287749038978
-0.011909919164956314
-0.1029593397131464
0.01474095186514547
-0.06278148854458786
-0.0895278569758997
0.05885393570923902
0.00165337173143177
0.014395929495052407
-0.05412201960814433
-0.04900422361929417
0.002123328243464785
-0.057391996199708445
-0.02146296657067474
0.04868224381186744
0.12837155930428581
0.06620362100588544
-0.0020656425607998843
-0.022141769236479484
-0.00036407126013318733
0.015142770800945428
0.011883934950678476
0.0012281916649886863
-0.007260943412474222
-0.024195574446447928
-0.021608388440733567
0.028715118955043046
-0.04818306611055351
0.03428888212231578
0.04941853996334903
-0.05309824798501422
-0.044984818741586136
-0.04077254158555546
0.025221388311675925
0.05873001112037594
-0.019142633471288244
0.14010215069941837
0.06551935959221737
-0.013739212051759401
0.010638193439488266
0.04264547771295094
0.03248163189271879
-0.03669566459614368
0.0021158120324476326
0.04165079430394137
-0.010938566899520432
0.024186572860754155
0.03665575073044767
-0.02357344935787097
0.10983351154637683
-0.03672236719301272
0.04654537730714529
0.034873949955950785
0.0027691409006111263
-0.05647312065232662
0.04090740443114131
-0.04414994667404139
0.042706190210166625
-0.019130401792409903
0.032690484539966744
0.03029422707840773
-0.07854044004057904
-0.0875708379146706
0.00540687242578087
-0.05804281742181569
0.03626443605816203
-0.05376656111677595
0.007947505229955649
0.0738508968370548
0.018544369357700218
-0.011048976154416494
0.06466250031620473
0.08791811733249101
0.024617916763363307
0.035965245142807266
0.09071473480341365
0.03137841017392831
-0.05289316121593605
-0.02759855249168566
0.04989404258299989
-0.025866783779816455
0.0030848815259633174
0.006520090334847422
0.13049612388256043
-0.06452402734058778
-0.05006241480110675
0.021623270614644512
0.012889959719652639
-0.07924488921623901
0.07073550777809343
-0.09673478667290275
0.08303288143372753
0.08567923985861411
-0.0272428666317467
0.018397604802800258
-0.03294674165812253
0.07790710582487853
-0.08685900282884072
0.007462884565243792
0.0007431146101403788
0.024537331267409118
0.11008911360984737
-0.007348424767573704
-0.04064314640609871
-0.0378357868115911
-0.06145034171162165
0.05932458254810389
0.13818528577171107
-0.09042629588885731
-0.07468693379042597
-0.02516959209332838
0.004824211553800171
-0.027448088346276295
0.024947241702062303
-0.023885046747681944
0.02598591686727368
0.11586911956816422
-0.007689035613171475
0.04660890325086682
-0.08446887304223755
0.04242829568127673
-0.04709259145477656
0.01894888046202922
0.06350770213979419
0.04504647785894136
0.012778047337885928
0.017112814993604952
0.012807647651455343
-0.05380949247215499
0.07949846307112968
0.014824143727759743
0.09837781076123316
0.06992450696989493
-0.07073330904279444
-0.07497193363160458
-0.01925719263481573
-0.058092296383334
0.02183161644706177
-0.05449611277005573
-0.015601936303937108
0.0364960499752461
-0.11750518441898888
-0.034632627817322084
-0.04284365859432805
0.03621812611730569
-0.026032762677827854
-0.06196061299901559
0.06086892806038091
0.020159400242043813
0.08247604697095669
-0.07128070202481801
-0.06208254653710602
0.10044604383892859
0.08769565282849459
0.13474103932699877
0.4684013142463481
0.9042473596623257
0.5207350589102747
0.06161561349940025
-0.03594456470210041
0.018339853352295345
-0.03593193392286585
0.010845379795391186
0.03740398483780966
-0.027771312184484066
0.01270015824892301
-0.011280442015616687
-0.028964037600379605
-0.07106943910638194
-0.005090996266161429
0.02184721471759528
0.09282493881718795
-0.0938901543497536
0.07514537934061422
0.01051214336302316
-0.04065011153442553
-0.03659193740807537
-0.05386897349861869
0.08037914919881917
0.07178839629946203
-0.08243651157318753
-0.02342659449826403
-0.08361188663181152
-0.025086356931398598
-0.10194424071606781
-0.01236670437653983
-0.03406753061070128
-0.023377635704109122
-0.03133430958354876
-0.02518927214404204
0.009193275982886523
0.06306903988930736
0.05279200617605585
-0.049148485920930296
-0.06634908528217286
-0.049332265159560906
-0.05427017490213233
0.008172006309193444
0.01810183974497593
0.04478393272056873
0.026565054031821907
-0.02801921391894657
-0.05732272377219051
-0.026320632948189163
-0.050509658260124005
0.018431179874467307
-0.02512337916636433
0.013379242642926684
-0.016847358207352097
-0.03607873018846504
-0.04882677007044963
-0.016291825037452398
0.04556026405696119
0.058831813010865056
0.07107650284228037
-0.011537664739067362
-0.03602269013616367
0.01426845562736008
-0.015058391949336778
-0.030241762839172227
-0.040752811255001464
-0.004106134026340594
0.07353549095398552
-0.039532121242438566
0.05134171107660859
0.006063612883349199
0.053662253987994284
-0.012952967267939217
0.015653886106869696
0.05882935928969773
-0.0509158726227612
0.0053059983321759995
-0.06328802858802351
-0.03975905992133577
-0.049567024762738415
0.029580580903386413
-0.04603103149746249
-0.06641654042942269
-0.03827897135962545
0.043213438541459454
0.08070227488012563
-0.04199062239149951
-0.009319215820164222
-0.04490473867556922
0.11470668400866608
0.06731026278357613
0.048402120929160714
-0.01135338547175502
-0.05039466722870948
0.028240848032706517
-0.05624202059510677
-0.03324178765155676
0.027970064702268593
0.03230288894691554
-0.03419123192667768
-0.07446173667403587
-0.05939339860753125
0.033347830581101606
-0.06343209238953514
0.0006853399063164282
0.045518802670088294
-0.020399486249768225
0.1310484165752452
0.0319051121387234
-0.05173216670668318
-0.014526663607456945
0.09568265080277077
-0.019006003344582426
-0.030446525489114553
-0.0012016447974070297
0.06986820134394499
0.03234980811471967
-0.05341862088518959
0.0683880989740889
0.0759997355048796
-0.03116723974385679
0.0017480138397997288
0.0002397040640881346
-0.03422687681675027
0.06920055581416101
-0.026192759054624693
-0.05281060831721124
-0.02648835397388882
-0.02026179272844221
-0.10427904320956526
0.05275906832687445
-0.04328992054325191
-0.03067165919340938
0.047256393537905964
-0.0515668414271793
0.008273667122927267
0.05706022506912975
-0.04878875424809144
0.11655020560828688
-0.08475173663006343
0.09223234610799837
0.07419293901476968
-0.059379359005256496
-0.053005208748318704
0.06731903796069155
0.07401070874749048
0.054750194306530255
0.03985071434841355
-0.011293629652073632
0.04401944673597974
-0.06755504003466688
-0.07675586442411096
-0.03422231864204211
0.10192346811927241
0.5737109761162827
0.9325315904308131
0.46787896796930784
0.0721889899713612
0.013755720154162078
-0.015492767261995222
-0.0048801973677917694
0.015431973963725303
-0.011572703570659532
0.004030086412526395
0.04699639309781756
0.018193083140474214
0.016128669413885174
-0.07004038700871983
0.02774795357988622
0.028886656579127996
0.009078925714903773
-0.006751702446837513
0.0032770124027152493
0.014073218606724495
0.03533894865793778
-0.002740857376866994
-0.05174125425505443
-0.042496194800624526
-0.02440598365320855
0.03250682957593017
0.03633315510755162
0.07778716962001825
0.012583798971234007
0.003618393337410911
-0.06252102053777008
-0.01672307783034514
0.09767064185690377
-0.0018132758868525346
0.02732923272610758
0.006110574663218899
-0.045691654966451285
-0.057956553357466536
-0.054915296760722446
-0.02192427880445198
0.008664710215674365
-0.04498302069486056
-0.05467843442779873
-0.0034876660598473167
0.06697113237519846
-0.04543682723990227
-0.02160773093584293
0.044415689339747134
-0.02805981570262734
0.0747333042267097
0.04542589845821457
-0.018921290875863243
0.023400041599768072
-0.044954122315481286
0.04420096219298286
-0.010015231249584096
-0.055321443656868946
-0.029385068888839627
0.015967871754827292
-0.061143318369471934
-0.03832549739641894
-0.024428674684662116
-0.07073104893382488
0.02773703020536902
0.04057772243034202
-0.05389291728425463
-0.041560800725463434
-0.010235370641251492
0.031486073122179534
-0.039486342297496674
0.0019346533302572464
0.01561225210158202
-0.021199925881607233
-0.022781652720586812
-0.07576697207722088
-0.03554840962942836
0.0757296645858572
0.018487780391466032
-0.0005094931645302365
-0.021291415298779322
-0.029941247703093365
0.10854200054401647
-0.053905342806326396
-0.0717445306957471
-0.04947327388445462
0.04131725196399886
0.009620699750331077
0.061775277109647135
0.02582525889844302
-0.0023858916636916583
-0.010038277959592883
-0.02788527106983761
-0.02234515830542119
0.07643451562498547
-0.003022199002839656
0.041046518753379446
0.06867651504938191
0.02003560513055144
-0.0617786328852625
0.025249789859912775
-0.0002291152460236888
0.00805719721478897
0.030618665362821425
0.009478836961401471
-0.09841819066687009
0.004959432050177812
-0.007159688090145462
0.04180157809817316
0.026096938243996216
0.05378029687544131
0.05073846426022094
-0.014984128447490969
-0.011393027711164464
0.04765125118854886
-0.13878609781809007
0.042578328682361444
0.030717701605893356
0.09484909288814843
-0.022996212845859287
-0.00501068516547626
-0.01274460300835252
0.015012791074435908
0.029713305193893244
0.013191066402877406
-0.008798518309167835
0.02929070715433442
0.10763773484458444
-0.04309530914759582
0.009407658599155988
0.038375752261636545
0.038349185709886054
0.0027868278051995012
-0.0003605890309913899
0.04879331510566205
-0.06817012078846373
-0.02423074068363373
-0.12093495303612037
0.032447662825162725
-0.03366080157436531
-0.03518202103593806
0.12447711306923215
0.04573981175010011
0.0978644180881173
0.023273164144938047
0.04493799878518295
0.024159049674387985
0.0798134935674671
0.002081752515196741
-0.0016706939304834464
0.013400568575565618
-0.1248846932758218
0.11108736380857526
0.04455920270087654
0.023368940871413314
0.01989851433349135
0.02564211061276041
-0.0001231186414729465
-0.07288645805205661
0.1002047786263951
0.5313611351910489
0.9832157693162734
0.46608932503772904
0.109776160706434
-0.0474739732823622
0.03002993207536104
0.02007812801705131
0.03077893693061909
-0.06575058764980792
0.041574642354261775
-0.015706024798683747
0.004363487967753722
-0.05201078996158531
-0.07406995555829399
-0.060470585603706065
0.005266321472059354
0.08318583722602943
0.04384409530597911
0.0390979403224489
0.07280859446846906
0.013289327912395933
0.025448932067148003
0.023328868530136306
-0.05624492138942101
0.025834317833653444
0.014399231615180317
0.05959762577190027
-0.011554421420011202
0.060027137978284566
-0.029510396956592133
0.028605386234870057
0.01266262306138103
-0.004490479597025452
-0.05594210330705655
-0.0019359154075478326
-0.0011401192622715228
0.023279059555178085
-0.03591605779555445
0.051990648720332315
-0.013698343926147875
0.11477154878167779
0.06873054843718525
0.07798738039928355
-0.010683150300132511
0.008070564142574019
-0.12355923245995121
0.03829786822161544
-0.07703985711390492
-0.04885672244066835
0.11143866525062407
0.11198497229790803
-0.021939209243124674
0.031335216927286455
-0.045270851087390616
-0.04688227422360844
0.07481103661267087
-0.007960586879319626
-0.003967985606727121
-0.05721515327170571
0.01999610000825675
-0.003555383651763914
0.02220296955319013
0.0570736800579153
0.06474220853519864
0.038906257308277264
-0.04096880300737463
-0.0383301477564571
-0.022090843419087135
0.024296118746499513
-0.008602423500539469
-0.042120691601996746
0.03498123150138311
-0.030027533177080203
0.03173271022338486
0.004948623286502404
0.03814520724353296
-0.03553307019590381
-0.051430745178327165
0.037062472493625806
-0.03815483009978704
-0.08993610471441194
0.08238628234199868
-0.020266081423088382
0.05338754092776607
0.02577754976973118
-0.0015973360402782148
0.036075964131925695
-0.01867168139790455
-0.015439025743632177
0.13846954638593745
0.0011790327620354157
0.007682481386717083
0.022320699209291563
0.014097422356286719
-0.13177199816729174
-0.06792624693286273
0.030987065550363586
-0.035761808049903684
0.020157904742553003
-0.06079579290232571
-0.018019469588660086
-0.0009045712144364949
0.04443763268342444
-0.013459804550776475
-0.11028423618415613
-0.041653442342612514
0.007565842003544174
-0.08722246729236911
-0.055300415007132155
0.0074009957877669025
-0.025840905487091156
0.007579732733786124
0.13148197064660672
-0.06797916802418762
-0.02554378105833512
-0.0911691868669472
0.11306932205919003
-0.04409488348242478
-0.04087381856620868
-0.009056863198423937
-0.039949758753541814
0.027984566427439468
0.03798973208123272
0.006256946163550256
-0.005282915404796981
0.05039026177220575
0.023227345511481375
-0.0016569190810915768
0.037197369957396115
-0.03680774984544466
-0.003973994810437565
0.0021409925798798932
-0.044277705907750285
0.0817140137064314
-0.029709159358308486
0.013793244592783974
-0.02697108358108361
0.05562164777554999
-0.0038814731886697325
-0.07017354561174563
0.08357182150476228
-0.01780950250694489
0.05444546805214289
0.10311047869758033
0.0030466286515247187
0.010705826821811775
-0.03172036295288434
0.013764250486758148
0.08377493943437964
-0.06937554589367143
0.017705591804745513
-0.07260357187637967
0.10485859112138163
0.18044219889093857
0.5472212026885468
0.9831270115157207
0.5285712982510621
0.09320391807379134
-0.029756427975603125
-0.0012886994895541675
-0.031471560704668604
-0.00914365106251087
0.03006347289334523
-0.028624660772395522
0.01615026961800085
-0.08437910226029735
-0.03845241159245826
0.04884904364912524
0.07181108529479448
-0.0006722938367056299
0.05021356749095214
0.016712705202232402
-0.005322793754111772
-0.027845513571983706
0.026994383093064962
-0.037011932338470346
-0.002842439106266607
-0.015384364636663884
0.12779240847263976
0.00990537001032199
0.030449986606382075
-0.010718066268249655
0.02660876260161369
-0.07914643969209509
0.045137091423318926
-0.0046761812300034015
-0.014743397824395028
-0.03510502739593557
-0.0521926670082285
-0.017958168366039348
-0.006702491940148089
0.009175137303876832
-0.05117628727883094
0.0782894493214601
0.046973533614952226
-0.03920224273737003
-0.013800604579851003
-0.001040217885194404
-0.040831467691060795
-0.0021936749289794325
0.024749048134479167
0.04982681019827425
0.09324623779924981
-0.09484207631577013
0.05708574301332622
0.024668150174464124
-0.005089160250654221
0.03428843999824471
0.008204884076807634
0.11890231131041157
0.013640914889262098
-0.1110621109163878
0.030593788614396458
0.010675142382307136
-0.020726540679645064
0.00535755562349901
0.01560779299281685
-0.060576935386071035
0.05289530781414196
0.0799310608892354
0.012077612885766264
-0.05250085364342311
0.04392922012661781
0.053803061275623704
-0.06100523177385975
0.027454632986914137
-0.01903705951066179
-0.018977559429689376
0.07864082550593704
-0.0009813101661667342
0.012338766588595599
-0.043688081534500586
-0.045337229331747476
-0.06559460004337485
-0.041379807870984504
0.038939396353000255
-0.03294772966578007
0.010932049782238823
0.012359455235509043
-0.0013506910518973096
-0.003200232975383935
0.03899349866241345
0.035521657397322506
-0.052226871853429016
0.07088585406277592
0.09066971829332371
-0.0839193551598274
0.0006045752012664131
-0.10975151173020431
-0.06031521694354221
-0.022168039389636997
0.015096043268102209
-0.030859893492846326
-0.013916819049120167
-0.1315620756870219
0.021288772835590757
-0.024949254996171417
0.0016389936806308018
-0.009140987950131197
0.016714150176603874
0.02740674334355335
-0.10047047009713256
-0.038107758029117644
0.0008610641482341476
-0.0033767832836402198
0.008732975232657255
0.0032483880797965423
-0.013710755727691327
0.03994197408902722
0.0063052127160009176
0.01443777131294343
-0.009008710143999203
0.02290727512583858
-0.04156871111593997
-0.04908023772970733
0.004157512342971055
-0.049363099334523604
0.029598199962745216
-0.0322582444302293
-0.1125560869723631
-0.10725567560319366
-0.035061506601284126
0.025918028031918068
0.035660386673862746
0.04466963310103031
0.02259950869366137
0.00847940286641127
0.03201632701776418
0.03028584654849071
0.05457973243526332
0.03424127077257415
-0.052001527005353224
-0.008553192812524436
-0.08617858498219631
0.004342507066711485
-0.007943629239466071
0.057689779708043246
0.028268116108622645
0.09028497250691184
-0.06182135507669764
0.07546174934366921
-0.021552695373374904
-0.061435929961039415
0.03540091034903827
0.13285472132385823
0.00519879179571256
0.049908644444853656
0.04029741682533358
0.06229022784068733
-0.13227134972693416
0.12265106403714104
0.45445458132262445
1.0346416429510912
0.45460621472586127
0.04023745118228651
0.044965425240161394
0.0486514308406845
-0.05983362729267199
-0.0034957381995422026
-0.0430608101547991
-0.00409929135846701
0.003346560566318272
0.12842997517519847
0.013973975830981976
0.0474902721200745
0.007090789589897808
0.037637227648790544
-0.11125425100477436
-0.10040454451244803
0.07828459290409324
0.06752310141484498
-0.0270814612625507
0.019396155263805143
0.03875322579629523
-0.030406788842690564
-0.04097426583277691
-0.055234971149133165
0.013922402932327237
-0.04443905177658857
0.019063317456914926
0.03148211029781888
-0.10000041980141411
0.010375629009741302
0.058318855412117544
0.07482415917226475
-0.019333234752979333
-0.05719312666019847
0.054964129061250235
0.05970965443195343
-0.027348706212463426
-0.015237967318506872
0.048871021550671745
-0.006391543650738263
0.11787165750328732
-0.010810215035913395
0.020033147813093576
-0.04483067850203577
-0.0228927418415982
-0.008945713209581553
-0.07101244267250753
0.03634511120247736
-0.04315281065226321
-0.07981323298634155
0.0785099216992003
-0.0001349554785794241
0.054469742016891365
-0.03931725415358845
-0.09805787803125571
-0.08411519785248195
0.04779665526965816
0.01619501421215337
-0.08612403763844825
0.011457472640890727
-0.030537403573329076
-0.0336564787413687
0.054149644129675656
-0.1025903974807432
0.04290243499994997
-0.027958097272787825
0.019367789369066125
-0.008245900768625821
-0.03265837029083217
0.06926319615282957
0.16098993652564808
-0.09895917304698709
0.036186556735396044
-0.05226104126217212
-0.09909402810944684
-0.014752754145247685
0.020643197823942402
0.003113759790967716
0.008853867764610019
-0.04090713021647725
-0.005092724213274318
0.0015956417381351952
-0.03478757891057757
0.024136786318251852
-0.03406915806417835
-0.019131955478012597
0.06828247487523252
0.030412303736942883
-0.05921846847491901
-0.012571465257376733
-0.02117533641810536
-0.023538335944481778
0.029331455185216834
0.04762490646235744
-0.028757342731794006
-0.06591844330858417
0.05554626464378457
-0.018921026648858794
0.029184445057477606
0.015125241732444143
-0.029054682569145118
-0.060201628387782105
0.004911221366367769
-0.018243195551308652
-0.06343708930260013
-0.012358208823998199
-0.0006151432330369381
0.04005466116519307
0.06625705053453251
-0.03280617204521449
0.02411673505437137
-0.05157334366313842
-0.06820632765122672
0.13510936023467082
-0.060513498968794634
0.024935564864753793
0.02285648417561005
-0.02049520888588778
0.016323461414531722
-0.013091486849831253
0.030180762559278047
0.034132971731265095
-0.022982077909554265
0.013995209283327448
0.0563321765261299
0.02343989381373073
-0.07138627414541479
-0.04633404850299755
0.06677570731400204
0.005945785093817139
-0.01733192906487927
0.015456082773923225
0.04885744357734155
0.052515152840222526
0.055034853022054776
0.040468296545088545
0.047720855160584344
0.08822183827264396
0.009400518483658691
-0.06560089815442326
0.010826338548802692
0.014356993138797798
0.05710112517111592
-0.02040683766595843
-0.05064939656945136
-0.00873978495054819
-0.08515018846143987
0.04427301135763223
0.025351545834554026
0.05745927415801175
0.05454337834212426
0.051960999865327054
-0.06050354002742608
0.10872728729642833
-0.1263441809506482
0.028492497721217033
0.07603459776128738
0.006647574507519974
0.5013030894887437
1.0026316190192548
0.4641491670316409
0.21518328615548188
0.02716743236657845
0.042235699811995264
0.005779711497398425
0.025183406938254323
-0.006705436580147883
0.03444998163833978
-0.011288575959970256
0.002361110300516448
0.04985528186638065
-0.07476156524280728
-0.055162525256076705
0.0042566334809661195
0.007935004009233502
0.04472610255188486
0.0921046305415876
0.024522672661885094
-0.023377736151800013
0.0016935624522394336
0.012361888637399088
0.03307868990936272
0.07321497272373208
0.04927731616491494
0.08798118497422572
0.04907611489743869
0.08751905694025619
0.06874992698982497
-0.005143917407608835
0.08070673432768964
-0.009628706509728715
0.04592177922894215
-0.03401390553886635
-0.02486109488967538
0.021282317685397633
-0.0280330099289215
0.02594713438928505
-0.05424119081419657
0.11010050428053651
0.0484907516226557
-0.0053675491270152465
0.044555282365414145
-0.006540950499561363
-0.02848065965908433
-0.028440483442650568
-0.01750909854803098
-0.006736021486099364
-0.06910345036460934
0.08006595091602914
-0.09886234030966029
0.02531615090936173
0.06986183315896842
-0.03502062929139719
0.0056435075238735095
0.0367359862640553
0.003645761327944662
0.05006282810322983
0.05035525211522638
0.02788605406128519
0.020617366671596454
0.008669681686666889
-0.07399181841409454
-0.07795058039761066
-0.003959395342389367
-0.026521653444833867
0.038417048489130655
0.02473255833027788
0.0011965559120037223
0.052320392840113875
0.08844026894659415
-0.03137392452331701
-0.02801434254536697
0.02068691989794853
0.025549989607929043
-0.048714962517874744
-0.06257182612412542
0.03932541765773617
-0.009184861816002452
-0.029387550025990618
0.09932136133657643
-0.043675127594213214
0.0341610332731067
-0.08395930186609886
-0.054345795166339896
0.037321278549730365
0.06858358352003933
-0.008245681674262312
0.056981079786597943
-0.040347737148228896
-0.003098358111903253
-0.017610656062437165
-0.01573200293787753
-0.02298307446575305
-0.03547220869596264
0.08225890825541016
-0.049092901923374545
0.0155472869731859
0.0105324819927505
0.0622416697850342
-0.001561403418521625
-0.043851557153996544
-0.06310592151201512
-0.01927093749555145
-0.0743278916543076
-0.03171248788825475
-0.0441384268477962
0.04856268728257714
0.03653919348511309
-0.11127216737204007
0.06735140617395777
-0.07049288136419928
0.019963482803730642
-0.0024363725792379397
0.03250159781660391
0.02745797566676089
-0.08298961076535114
0.01572985543774814
0.025893295354099784
0.010542080392675415
-0.002816294500442966
-0.04934949544629849
-0.05679853364356089
0.003602412767581887
-0.0600456314638764
-0.0028128361051967983
-0.024504247421492577
0.02560777470269099
-0.04805186676366705
0.0789285538516788
0.005125755876830901
0.01619049698453481
0.015133923361315369
0.03743168659331644
-0.03909136512549497
-0.0926412347229504
0.04574083520221994
-0.03188729800924478
0.007272009094765358
-0.031161735584292468
0.06597061287521387
0.025257803651873537
-0.016794987676600714
-0.006481245806943124
0.028658066326397086
0.06985873237118173
-0.027688784008836804
0.009078605485495472
0.013771983671326773
0.02926194732501
0.017384802155787735
0.06348077098527664
0.535604240443336
0.9742435829151115
0.5509979819958939
0.14429303868405485
0.010192599900566333
-0.05874453922012865
0.043754644128002784
0.04004958141442035
-0.08164790903033824
-0.029221002820514444
-0.06956031869954722
-0.06755003883817798
-0.052789044390702436
0.021714850264275026
0.010867056238332878
-0.03837074978208189
-0.09370675315649367
0.11481185551974737
0.003277955057352197
0.0033808272010263834
-0.036532724698536655
0.009128477133279581
0.0891546022521717
-0.020806255566072386
-0.05716231025211457
-0.0008704004138469484
-0.036750859672799036
-0.00404536170224536
0.0052046118542451334
-0.022465984318469835
-0.05601657863517338
-0.020017741206532852
-0.015672366838196793
-0.022439544218154268
0.020781115751943163
0.12686389415888863
-0.020640521011675933
0.017591389968543175
0.11808807771024843
0.0034351602610623016
-0.13891563683734665
0.01738266788491458
0.019419117675334982
-0.04900530531451425
0.036653713736442106
-0.052663458912173736
0.05367408374356916
0.007001772031867158
0.022677680628874836
-0.05612400589808706
-0.04611225758730454
-0.011252401832781258
0.12651857329175745
0.051307781960758005
0.04914581673693219
0.0669437291731184
-0.07052288781029847
-0.07278446521174557
-0.09599768392799533
0.043495519763011185
-0.10773376797178467
-0.07621305260274737
-0.09551290334190714
-0.0010604613157404964
0.005675042474852801
0.008619861025190877
0.049771054451426884
0.02088573100910007
-0.05948817433258537
-0.013187646596139281
0.03413478505899612
0.03127907844270854
-0.018842252848129383
0.020211136619660702
0.007511883405776958
0.06855210388146234
0.002417149861429873
0.06121752900469018
-0.051646915713539666
-0.07753765722877144
-0.047350559208362925
0.0564606282933463
0.0298875937796443
-0.04343215991196022
-0.021875532429956067
-0.01682399906756725
-0.015136685938361353
0.015279287491143687
0.015887818392561422
0.14804581498971028
-0.0668244282170693
-0.08370987429197649
-0.0011097810006524711
0.0836901030323367
-0.08463026995452001
0.09880419044218626
0.03604416160186202
-0.056934996930390384
-0.014290110631043906
-0.04714942319558932
0.08224649968788228
0.07371214485488885
0.030684851518600006
0.05749075001383807
-0.030366370850138116
0.016566170194206524
-0.08794046178565779
-0.00037818853626474095
0.023174110825787488
-0.00977348577884734
0.056095560222196784
-0.007339829013770477
-0.023000850474181656
0.034437651038870365
-0.0357013178718043
0.05124853038515814
-0.004967072269227456
-0.010398227246967737
0.007781846973237503
-0.011018779095269745
0.09520297985814943
-0.009835016384449266
-0.07975802368855016
0.07931806415045123
0.033521268487618494
-0.028492767184484343
-0.04174279017757689
-0.0495263652985746
-0.009583267640903136
0.11033601590290365
-0.03513038617965279
0.03169479483812257
-0.029643119132599524
0.06377981590231287
-0.05904395083781103
0.034513025973555565
0.011568107224197117
-0.025157097427988835
0.03686523632769858
0.03441376226861089
-0.11762847369336366
-0.016820889803731472
0.14734481611785163
0.030736120898924385
0.03571933068524114
0.030623548041344567
0.0509054084091155
0.027774999018096044
0.04886242928305856
0.049035796923259614
-0.09303418698375283
0.046619436198387265
0.0425034717317391
-0.034176899028132514
-0.07433900468757303
0.012461790340696485
0.034760878674417385
-0.13440209793672095
0.016971703358715312
0.002886106164807045
0.018709284173825343
0.02320362884827569
0.4445251466769829
0.9589633545455136
0.47350112121676924
0.10358975671620649
-0.007368657095186082
-0.026912937540386858
-0.0652026943016988
-0.04138327754097404
0.07351408468438358
0.023823540126050147
0.013474472320622974
-0.0516163098676011
0.04855200831747819
0.026880046701886706
0.011379709439799122
-0.013604517525701396
0.0348344550124016
-0.056021837103743456
0.006058045543863646
-0.041399172766303165
0.0654949059875846
0.06982837744397073
0.013287639848023895
0.008916897767900887
-0.0006694565148673459
0.03762797362354741
-0.08297906235150787
-0.0066984567976594595
-0.009223232954433436
0.01630247616685799
0.01968900724565628
0.015357097529420577
-0.036520272440384846
0.11711815135219493
0.05995494294804132
0.03894402647610434
-0.0138002911733843
-0.04018361528065938
0.0653276919185933
-0.02852302489465902
0.012970017346570571
0.024661292061567395
0.025373062668752912
-0.05909716935104159
0.022360874840614005
0.05138459003170756
-0.02120259625250809
0.039141529816267305
-0.04656742007749624
0.0373329794589068
-0.01617742877172518
0.06188438447613435
-0.0313791327495096
0.006692188475591972
-0.015764090063531924
-0.016855953928391173
-0.016727175229234083
-0.10510971570110861
0.06536752222399714
-0.010367888347957151
0.007203664574095471
0.0003818323457246961
-0.08327412572277383
-0.014149255790085198
-0.10866311391601768
-0.020825025932137236
0.09454341789335834
0.07158912711651809
-0.014311876774698647
-0.036623929907302864
0.02607386879482067
0.02555780160005834
0.008216479425877327
-0.0484629218896393
-0.10934511458850898
-0.012194884425044697
-0.061149630390709336
0.08738713339445964
-0.053868669763025116
0.01755458904902986
0.02621446596902778
0.12444712723581651
-0.06141989625412634
0.01549002559880902
-0.015036152994691056
0.05154913635081046
0.00468959370276314
0.019841787938342202
0.026771038826314764
0.016970847678659497
-0.06144007855756828
-0.015225002282255668
0.032470355493668834
-0.02548639762271722
-0.028199623923612735
0.0640053109598535
0.00461482074610742
-0.05675279233980968
0.004939557819995423
0.020222759247069736
-0.014480026044937097
0.0013995952081743577
-0.07056856817511067
0.04946698636614244
0.015261923286984598
0.029223498725933383
-0.0069390621403135335
0.043698186315717924
0.03276566952388231
0.028609786413962876
-0.14394261747584836
0.01570047055486716
0.007676210466667183
0.03628918262903357
0.11266369638015922
-0.004685288772101268
-0.0024061301097712336
-0.050867977130454906
0.07644176720453805
0.033257762784073074
0.06126028766166695
0.04516333236056755
-0.011795861441359296
0.04835495230599014
0.013979792170312439
-0.03916473960140925
-0.037260851423333276
0.023039575708885273
-0.00565638500149844
0.16479843207594055
0.05365319959808217
-0.02004717953497931
-0.07881156789928709
-0.03615092695987254
-0.1518185908635079
-0.023831971268483784
0.0347164907506972
-0.01003812583411555
0.01013633962796364
-0.021308236378678666
-0.02946726375692678
-0.007857288021362816
-0.013348265546932976
0.026785707778481743
0.007833905983794439
0.03509471979941149
-0.08092368442866099
-0.10323385852728212
-0.05421438991503097
-0.004444027001632872
-0.027353992963320223
-0.004439506225367896
0.01700936288463883
0.12241417381502272
0.5362433597086713
1.004270129640868
0.5301173264476886
0.10569010802365732
0.013290993223724533
0.01164031205339513
0.011322034361395714
0.028271772077008945
-0.02994811670408748
0.028610110700344082
0.04060941637950663
0.01692719309936943
0.03211182554501698
0.04281758718749974
-0.0054061286587025826
0.09002847190619939
-0.03698910989636266
0.03350635823889872
0.0011712077788412119
0.05956053425250416
0.016069692008571668
0.041255130015215
-0.056841362591799796
-0.06310249241099745
-0.022739697395389127
-0.017580836312483056
-0.059625212655714334
0.0807264150568895
0.0055521346996789435
-0.0030366615916031154
-0.02292300484077761
-0.07694879726376584
0.03269451110278806
0.05023921094059598
-0.055578482302382895
0.01900628482368112
-0.012651734272723706
0.09050325603108608
-0.001973082447309825
-0.0454339588923737
-0.03143063707276167
0.05615890047942912
0.0414963600799777
0.005963372735450605
-0.002419455402323174
0.07248543564319344
0.0036537111366128985
0.007663724760084011
0.04003168142218769
-0.007821910906397247
-0.0013683462048816929
0.03688522081031156
0.035455751044089504
-0.08142686659907872
0.03723441578658298
-0.014089608725567915
-0.05445719590797833
-0.08892469875912988
-0.03869500657501029
0.02428554399383817
-0.04614703979385069
-0.0045704433200222825
-0.0585040002209567
0.010440963491326272
0.007603562221119346
0.05959050142959537
0.08561890560439868
-0.09141558275869517
-0.013447131561918872
0.08016770611442565
0.0012524631249236974
-0.009686043848711828
-0.002554959222311713
0.04833082813567214
0.06992194474214856
-0.030609020825781253
-0.031150009510105582
-0.0321648127328463
-0.028262492202731523
0.04427523628159025
-0.06879120785727873
0.008482258330134313
0.018854737569648502
0.0703151557399567
-0.09240947651582535
-0.06245387504524204
-0.07952267648563996
-0.11827162439457317
-0.007207957859522424
0.06359252590014375
-0.062213898814547
-0.0040008801782717976
-0.025427418879958277
0.002122075335648123
0.03736709888841447
-0.018168675790464675
-0.03362561692315593
0.009886888362994166
-0.011343369221345599
0.05136161916177448
-0.07585262598277043
-0.07053727246128517
0.03197526092317125
-0.018737895721620424
-0.021686738208951315
-0.021761216080915163
-0.009360596027084696
-0.03694953804999665
0.03565197103126647
-0.0035794962289619975
0.058244321659628166
-0.00434467734373509
-0.0845030248822496
0.0592168159982848
0.026227648122577718
-0.09212835945481973
0.03529774403696406
0.03159656273373981
0.04972202495297898
0.10557044010845829
-0.08106842996566987
0.00398145732051418
0.018871658434562268
0.03609724535287228
-0.0486451873622788
0.027318491311116844
-0.06617627835284236
0.018089942460147102
0.03870152536438219
-0.021412728050340925
0.04866054584519072
0.007659098396122896
0.05281552351698365
-0.0698240954021739
0.010869857280547745
-0.009324571155135776
0.018372139289340988
-0.10213342107200912
0.15306071180314942
0.04487441847787071
0.058052186555962795
0.06964701962424043
-0.04080353865311204
0.0185244741410008
0.06517434405788958
-0.03667077780004598
-0.07334445803521199
-0.017856383790075064
0.09808445620326375
-0.020155308303097124
-0.041695122544717154
-0.02037012090543422
-0.06694937499125057
-0.03416297273945425
-0.010539392800207601
0.023091603523788792
0.4573045345005077
0.9651469996732264
0.5055164208257265
0.04627264287175227
-0.044042933684881935
0.015072104663558862
0.04463085089123872
-0.04041013423863656
-0.06005631203690064
-0.000509511573271249
-0.029157219833064258
-0.02612598166530829
0.00842530245403678
-0.014541966099952034
0.018370493811773393
-0.01691786299407875
-0.06774473157459576
-0.05350083877640121
-0.0013304779210719902
-0.13840333682351944
-0.09152976521493784
-0.05680629729790413
0.06142144338236053
0.00354468739439327
-0.10337015064610418
-0.03798994963530652
-0.027672751544349464
-0.08144841382891009
-0.012592672040018519
-0.011188666998425797
-0.044311271015060084
0.0027101504673547106
-0.02868137702850393
-0.0164060609716946
0.02683996208990626
0.014818294509134373
0.03894419985207395
0.06873494931605842
-0.005042720869405931
-0.007825408774505235
-0.019356833015836114
0.0907381045526279
0.058830463739946263
-0.03846230380273691
0.03245764328299703
0.052299547942462256
0.04031595562895532
0.028968541480002153
0.06639566411076951
0.05920036253634248
-0.014185148024401682
0.08979223956014595
-0.06499214340046654
-0.012890901923154015
0.09075347272142226
-0.025469824496551958
0.04000714536367467
-0.01644636735610699
0.02757578469702168
-0.04317425773935125
0.04399061846303395
-0.11705041524410327
-0.07081389791361196
0.06450045975030054
0.03116971642435211
-0.029101671280799886
0.01873209418867543
0.03837521105670177
0.03161341286765066
0.03414320116662827
-0.02012489425016028
-0.018290897728757773
-0.05617103060142939
-0.07127273612503399
-0.0065852329415513585
0.04241879981358648
-0.06325001329481995
-0.041794780291077735
-0.0745442694427495
0.0230983122744476
-0.06377906827098652
-0.026079475660505898
-0.02579053109854512
-0.01257359948840742
-0.050203493464693605
-0.008419595292883072
-0.0042460231763629935
0.07936524787515023
-0.07558220932187633
0.0065304614867227676
0.07460790371216394
0.00308188298834268
0.03263667173366434
0.05292105736699702
-0.02766894912564399
-0.019615981543584883
0.0016809703805207928
-0.021792927596811288
-0.02360368159795656
-0.008689016522664895
0.02028937950908786
-0.05542038419665443
-0.00956142118169348
0.029262553413973533
0.05782626857748938
0.12466083340919176
-0.020308616789451284
0.02551947191023901
-0.04885452301678113
-0.05468075574097919
-0.00937472729557559
-0.011061550677669165
-0.05094759971498972
0.03445168844915574
-0.018748694583872443
0.015923201980396144
0.043956317058908644
0.013145572722782266
-0.020559060581962618
0.032530133135190015
-0.06926013206069484
-0.045928320045043824
0.01729292550246318
0.04355449614799483
0.05155673966318861
-0.030845079134566668
0.0863822145156092
0.06242000568570271
0.05203473545642906
-0.027315159101564693
-0.0337397224165275
-0.12206133555740172
-0.04390042768698296
0.0626177666452754
-0.011532542551456583
-0.046525432912024794
0.08078668252122605
0.08819989971123525
-0.09879287338029086
-0.02111337202220651
0.093073204533899
0.05207648221519197
0.011516120158900404
0.010836243741272665
-0.019743580740230183
-0.014191538975896121
0.044856144664138786
0.0024967992274575034
0.0375504780535047
-0.03879803325621828
0.031429838341787746
-0.0358724843475618
-0.024009199393814355
-0.04157121403281186
-0.029564550370819634
-0.122314238776185
0.03904911983464727
0.07008516365352631
0.0016234638437156068
0.0012708644993708936
0.04949836946690417
0.46379050735203414
0.989177212636009
0.4028724189102592
0.1284361486297303
0.031303591711014836
0.03172257356430149
0.005304399954242789
-0.005377530701386794
0.08974790965952922
-0.08037829533297682
-0.02014408513344503
0.1114563864811258
0.06200534295022436
0.011355060926252231
-0.022095167930931497
-0.03276925993689364
-0.04613055531862237
0.001035014902435664
0.044462665941616034
0.012021474707696031
-0.012509756359685115
0.041080249319530866
-0.10025867116792114
0.03412798248665074
-0.0011962068894193006
0.011594404512383041
0.02546628916252382
0.0615385398560662
0.02231472231817031
0.022361055186330258
0.00017199029824151936
0.024690641388033972
-0.04236344741239476
-0.021731980719022485
0.03881975596079428
-0.03359997842872486
0.04292377037300059
-0.011142475303240758
-0.009203359762526361
-0.1110292608500443
0.06024099625013546
0.055294651960527186
-0.03755248103949643
-0.06185655395567438
0.05450644415868251
0.007426459512242008
-0.03530669935606757
0.005117320591754671
0.03799474203223183
-0.01099120475528442
-0.015834210108238326
-0.035564687831209814
0.1081372960769695
0.03880099144134927
0.007694678384651453
-0.014913126892487978
-0.05081238891951476
0.04124280846553693
-0.048249894382926845
0.06580127178187342
-0.039196127158502715
0.0418539295780851
-0.02754976951567268
0.04594718307415182
-0.007164713246238058
0.029258593617498163
0.018981036242052145
-0.06507847675947537
0.019524800556235705
-0.04079900732893744
-0.016462413887974245
0.09241978905007175
0.02934580573568707
0.02380350936884735
-0.004326470776794045
-0.058969147642521307
0.16795541939074565
0.010722637543236026
0.016574560477188315
0.03294560347968536
0.06169897293909665
0.09914394819871075
-0.03154469489413721
0.09784805874053204
-0.016136621983782413
-0.08335178879450929
-0.025775112687596465
0.0751101435211156
0.004846722357106493
-0.027484226980571652
0.008693669342598602
0.0680360201838356
-0.09499024276946474
0.007719815581428618
0.09478948842287063
-0.01202003535700389
-0.0005298958011744248
0.02996014692246461
-0.09152644151090095
0.009356670706987931
0.029170516045853023
0.017226089941125632
0.01218508698758175
0.03328194515667953
-0.0245138042601952
0.05615437729159905
-0.05210753806061111
0.050878657426599874
-0.04242652390028277
-0.05072872208482529
0.032573316355331026
0.010275122016632492
0.06526130514621374
-0.014781664719826582
0.0584216162418511
-0.077885433649906
0.023924136879151063
0.05173759023714816
-0.03360872556320255
-0.03301870441134157
-0.008739660993398981
-0.023485394934280607
0.04156737969630145
-0.06370967267036244
0.005582259508478
0.028884311547518655
-0.09437266780802975
-0.013343304333778406
-0.030447594028118204
0.00211921554270454
-0.04544226582280632
-0.021658773008393573
0.050239401206585724
-0.042272504713522535
-0.043607311699302126
-0.03019235650603241
0.09837866005841668
-0.05916343602081945
0.06462800491823147
0.028935203728729958
-0.011890766627034527
-0.026076811333349784
0.001566502306820982
-0.052451289412053584
0.002755591672083592
-0.014069850902243518
-0.06733953541809033
-0.015090610176178246
-0.04863467122026076
-0.055425574753210693
-0.060999567652001076
0.07960565479897841
0.024468089945992057
-0.049149054292247
-0.012047285338882545
0.01853713716834945
0.13193313822390068
0.48717355750375835
1.1221611373033074
0.490645699419906
0.09820949031885894
-0.08788518860542756
0.09953773129649554
-0.0017811270015743947
-0.11288014851510185
0.09478069340285993
0.024054036048402117
-0.07416494865383749
0.026538198702526456
0.024372446416932553
-0.05073785141168002
-0.03588222667974408
0.0462023080759522
-0.028274854665399408
-0.0003387611201969528
0.04124552776440365
0.06502144580734837
0.02179939492079981
0.10632213876373141
0.019673504332815506
-0.056263277898409375
0.016400132435581992
0.04051557762609336
-0.015410553200502412
0.01597507773211461
-0.014845365604376735
-0.03623923370762625
0.010769176714302553
-0.08540696449562415
-0.011972678240906568
-0.006292300505990914
-0.03624909579977822
-0.05387108819593642
0.040125540226424276
0.06895788558399105
-0.04644710155071612
0.006173430594892421
-0.06037245073168182
-0.05172695435359196
0.05339462361078634
0.0018362423543100356
-0.029561853083857205
0.05104537703490697
0.05089511147136888
0.02078876473115608
0.06051945435745675
-0.04239896612747194
0.007653721366741144
-0.0745185313676487
-0.07108082150919606
0.06475104664116586
-0.043912536539444616
-0.02234698878884357
-0.005712860937991036
0.11723892367965645
-0.0592169957212361
-0.004989329754684934
0.08040235991684049
-0.0033484153501454174
-0.012210160491940507
0.05420380120572319
0.04190212030626403
-0.0779042895263818
0.02127158468053042
-0.05508697532322607
0.008076113986614735
0.007818429725921639
0.007734222444494201
-0.04830943883960051
-0.07288115235985264
-0.056025716422612705
-0.023426350964949137
0.03358415236451456
0.07470156392133367
0.01788124693379616
-0.10439849648607398
0.010111017629498733
0.1305604700483439
-0.057368633294078236
0.03154021443494351
0.02700557633805853
-0.09400646356846343
0.024700190683128873
-0.009085197708145566
0.08144183685662701
0.08293319803065113
0.007310623640534132
-0.01678868842918747
-0.04096020227668577
-0.0010013659618367157
-0.04104904554981609
-0.07056864578792946
-0.024790895650813733
0.037095484261381345
-0.0012229628858933927
0.001162373020189612
0.06329172505219748
0.008195610020534079
-0.09150009050403468
-0.023404463879224624
-0.005770655746473795
0.04412552678329337
-0.03036044623164921
0.015356280763263383
0.040981421036032174
-0.03716354504544211
0.028569978563193515
-0.015085735213788252
0.02604558737879774
0.0031418102712119783
-0.03920878007622628
0.02282353466033043
-0.004929362399858403
0.025064226897100784
-0.039421351833222526
0.009106176450248107
0.004378756311856315
-0.031870494446963216
0.002101966719173134
0.0015486658945981296
0.0012353713504037593
6.209409548411784e-05
-0.04617118541359146
0.04991935799563209
0.07566844419481666
0.04484951721384106
-0.008334270849764583
-0.0245490246100584
0.09512966852584981
-0.04108417264008039
0.08742160846245517
0.0021203720498382526
-0.027979979802996144
0.018401581313081245
0.04024982192252618
0.01130304096096618
0.07615453775035275
-0.04623856629583448
-0.11801056303283478
0.02222423138263209
-0.01540403642930599
-0.02137416943980429
0.012214704984131158
-0.03354142574975524
0.0888051236013879
0.023960546034299274
-0.044460765026255504
0.028626844952471656
0.1242345442559115
0.5422779556074095
0.9822373213239889
0.4693079306119122
0.08351809610748327
-0.01021363718027364
0.023092456661480992
-0.12674216794764673
0.03940411529790666
0.09215876077148268
-0.0016865246251937067
-0.002714284838771739
0.10017322684047919
0.060756639879110376
-0.0004401846875877947
0.007818713615236447
-0.06390102992311048
-0.0005430902064822836
0.014875986461840508
-0.016891739688981142
0.08025873627032973
0.03568350112291873
-0.05197169544556558
-0.01366775759414856
0.008310729027983613
0.03268164957702581
-0.006197330781724005
-0.003313182758882547
-0.01919503690774958
0.10949394215967681
-0.003357916079466606
0.03965382295308106
-0.05785613805223683
0.017704397619736936
0.06763926104455663
0.027498266567439672
-0.023677563390950254
0.018431333693042628
-0.0053901656250372075
-0.04625394997757253
0.03343963860019276
-0.03421645765944385
0.02643712692415641
0.028586307184211804
-0.012635284365591706
-0.02614911446590284
-0.09444947429689078
0.017458727935626122
0.055826814774314074
-0.033671442920178075
0.0018524679725423925
-0.03140960454405236
-0.014506250821842544
0.05453743325435682
0.04697804763894482
-0.10010604767570273
0.03081811567692085
-0.015287301917792755
-0.009798450524710824
0.07753835422808723
0.0036723377448961998
0.004048075851284144
-0.03572177555757803
0.03800519744532165
-0.10134119548302192
0.018333392273520904
0.03326233718249657
-0.07445721488141131
0.03934614648750891
-0.0057014662768561245
-0.1065015328388014
-0.024886842681850253
-0.09950888918486422
-0.03894834613735452
-0.028497166371107992
0.006790403347003327
-0.04160051390528134
-0.05766627662577228
-0.008910087582477293
0.03568047066784613
0.02299040447985228
0.010888016849438695
-0.003778443584626009
0.06830507360576443
0.04909717853494795
-0.0035016674211742816
-0.0020894022689237684
0.019301124124339805
0.01820361663532695
0.01681760285661145
-0.051279819422036466
0.04415054149575626
-0.0028974643741004644
0.02439070765786544
-0.020607442246304737
0.04388647086589845
-0.0034898503287866716
-0.0945164207666836
-0.014125808404296548
0.05316821936352587
0.06573492347807289
-0.08145909019543426
-0.0011423126222049062
0.006303191631399245
0.01609119280726764
-0.016368578129754313
0.054572511905398136
0.042551682444288856
-0.038145978763424515
-0.024507709293395432
0.12503906293320377
-0.023221498957358967
0.05136913957681957
0.03167389749385687
0.08400936629044345
0.06297341226592561
-0.00803525068975358
-0.025307695032947105
0.05600764281817118
-0.014082025504169064
-0.0063991163858323225
-0.03666382944931106
-0.03575096026765467
-0.05329000805655079
0.02267121191390065
0.014065975301402554
0.052667305866454565
-0.012448595050312785
0.060386874839537974
-0.0500003374178076
0.06825141721085458
-0.0447266139523273
-0.0184092566994867
-0.029168427645472363
0.01712203956894374
-0.047378139732326956
0.015147598393318779
0.05411229500094483
-0.005294454335450404
-0.006402314879149895
-0.03590799595458724
-0.01768823843230825
-0.02557992994744377
0.012414523899561974
-0.04170663331809599
-0.03228409270780722
0.021082219255251583
-0.05593007095143446
-0.07171713602146429
-0.025364960057886344
-0.06181329542207184
-0.009189232420819425
0.016038881464968808
-0.04937267993273949
-0.08052906091235461
-0.019153971755583574
0.016544517172069215
0.027699111686148643
-0.04706606998974052
0.026902015391622566
0.021031873424159218
0.0816591746776105
0.5007943246185333
1.0456534056801774
0.47466738197580627
0.06368834726662011
-0.01259415064128052
-0.04096525645190638
-0.025960385030138113
-0.04463834023481636
-0.06346585062140636
0.020935234036624322
-0.03157010002848045
-0.04065030605566833
-0.03612404165829881
-0.022010003571841914
-0.07915147013411708
-0.0001509181958899451
-0.00557861529356491
-0.015338326040131973
0.053448672729285565
0.05373818978058667
0.02220762971359338
-0.023334670093868658
-0.012646580991353427
-0.031063052433892485
0.022628258849963265
-0.01878727626001414
0.07972486810185556
-0.09795713352879393
0.005203484291170999
-0.0010466555023069153
-0.014003003516694514
0.06286925527521497
-0.08807783487809728
-0.03562815068520543
0.09568243135251821
-0.021515186752328986
-0.05951397321208023
0.008133617592143129
-0.041052432435734816
-0.0022164653843500157
-0.0006343874951690227
-0.0028329716533287298
0.010501734668488917
0.02214909030985675
0.06280092164550229
0.056248495766781516
0.0429803645439125
-0.07579871838226804
-0.056911577777619696
-0.015144696785075771
-0.06846370360873166
0.09166270758116139
0.027983378348660742
-0.02650157725435856
0.04907079066744019
0.009199069863148076
0.04035030592738301
-0.07554679367040062
-0.042487975408822744
-0.0012497027603752724
0.0734814858183741
-0.006112240070764618
0.061438490855437025
0.06053052038025684
-0.07535687095338472
-0.023798703727687415
0.010220161705160482
0.06326858500062923
0.05002165121014449
0.04678190719007744
-0.10462389903503454
-0.06980666865893632
-0.04117592507782677
0.0774236414704734
0.074874784669323
-4.181330490048771e-05
0.028238564998921453
-0.0545909661676951
0.033127327331988914
0.03519587414813063
0.017649044244145942
0.049278107825347583
0.02786568774483457
0.04774194210077658
0.003904040688186527
-0.03318640786820979
0.01946168825890436
0.0940877950960982
0.0036382429322771356
-0.062384760571108804
0.019949503111496597
0.08710802161913672
-0.01080383744367134
0.03658462113541612
-0.007569259949233184
0.14015604842027943
0.06940850836522085
0.10013052346057777
0.00968165796593909
0.04198911775643429
0.001131679958181651
-0.04238365824415983
-0.04858976928905217
-0.06731207766976664
0.08380118744989358
-0.008965636861952479
-0.04982107751613929
0.030414460987319238
-0.08319346861100269
-0.006131709156334469
-0.026427923528640093
0.04535624580172662
-0.0373221652700859
-0.039571529777016716
-0.022470148077260662
-0.00843259210150219
-0.021047058405231387
0.017610254800225458
0.011357340440514849
0.08633061555544101
0.008069141345578
0.1000205192825642
0.004326922781984477
-0.003255933737166452
0.07511670937395934
-0.0036350491365693145
-0.047320808533926645
-0.005494153040654811
0.053157136032073816
0.014026662857681933
-0.015264415670473855
-0.04181638024129741
-0.09463584061222746
0.04245680229333629
0.005311324420686946
-0.05306003788712576
-0.05890986777193015
0.022065693911854763
-0.03746627019077829
-0.1214173616928631
0.08471081360363998
-0.060124565447564775
0.006937396748669038
-0.004676662684466205
-0.059149073970176304
0.06219323589234147
0.028063831595119073
0.007557838554402741
0.02422411149688763
-0.013241533028935583
-0.01009234973108009
-0.0793556788876878
0.08930370907876026
-0.006024791047271837
-0.06394705139797746
0.019580453584141608
-0.06902793414316859
0.11626117429938138
0.41137435962364777
1.0429473083569571
0.46043204115191955
0.09249704510337287
0.06539322224276092
0.006627186046930804
0.08442514063073867
0.009187165878658957
-0.08988285960849614
0.004746587163536601
-0.0004885934564881233
-0.0048760646777483135
0.08441044090817337
-0.08986396470477787
-0.0687268682970955
-0.021699647738601544
-0.05857670680041125
-0.04411639222571087
-0.07280495917964315
0.004635746042047959
-0.040812605491316496
0.08588443003029655
-0.016913473858339512
0.011559897239855534
0.06021241649445726
0.022096975220958888
-0.012875087843019745
-0.017483571283099606
0.031244932446822804
-0.0098675148889017
-0.03265119722917121
0.03247279483730256
-0.040339276424027404
0.04050503647142717
0.06878080713674177
0.0007896672220235742
-0.09462003488195236
0.036172995210330176
-0.04427225050076716
0.012023219535039216
-0.11904438992254414
0.06491494223738065
0.04514221314598846
0.05243421896383066
-0.014140250289130324
0.051541801503423815
-0.017594509663664958
-0.04523391374664949
0.04133466457734046
-0.08037558278449804
0.06332067317837176
0.042009050233174736
5.43838037285372e-05
-0.04161088891280066
0.013931914545033827
-0.008070164253582948
-0.09510865000544094
-0.04045312647566335
-0.05891632835402242
0.021399451589368082
-5.585005950897096e-05
0.08976054769862679
-0.007660494073463857
-0.02115645109207999
0.09785382536254511
0.021978510555173733
-0.08653083040347596
0.0750930069309252
0.046921841544307036
0.005015918718453496
0.042515232915218214
0.02201582488651127
-0.09565780183600286
-0.0779627255784786
0.03343025278233492
-0.011169301324869749
-0.17029382568548443
-0.03209502396180349
0.0021705432515061723
-0.020898750650735563
-0.012250801353386465
0.06637862009574451
0.027295817236137245
0.02435400367618155
0.033500198594669565
-0.06248110516413391
0.010321862261949121
-0.04996098686646258
0.02900462213421995
0.033658557262822644
-0.03240895403300715
-0.043532489344859523
-0.06776150079277284
0.036446524761132006
-0.06885815998921929
-0.05485519784877089
-0.09017771397051699
0.022325672558909715
-0.025578279258760814
0.05574075749703329
0.004689442163115562
0.03041054170945654
-0.03902374180618486
-0.05274009876184929
0.006773062480266568
0.03332857261751417
0.048643334367148516
0.09114893716248512
0.05844230950437787
-0.03590363693234571
-0.009946298013558823
-0.023057642062496816
-0.030898833114902408
-0.07293663592811127
-0.05634698237290853
-0.07174211960433854
0.05061985440679371
0.024943116217630346
-0.048875010313418926
-0.06153898001887891
0.02638844410043094
-0.04603305163750738
0.01707171053353264
0.022684026312004738
0.045499210413497825
-0.023078828327382176
-0.08833270924854784
-0.02085923132301967
-0.06013471428073122
-0.03208850578175832
-0.0005201149887824498
-0.05680679963541973
0.10890565027850473
0.005384323769006468
0.05884693505906688
-0.029879199995869424
-0.0713093123466668
-0.07055598599271852
0.02777992925724921
-0.04260033931675784
0.08727436872021332
0.06523788042124913
0.015881892515146004
-0.058106297614739524
0.057271863821453474
0.006606287836250237
0.05389005936404331
0.03730086568824844
-0.04101357138039256
0.10401814276390571
-0.13607366895740364
0.03614564099984484
0.4768172938404035
0.9531455859959316
0.5860290713697947
0.1247541324612974
-0.03507576362936483
0.08031859811033769
0.01967390808042121
-0.06787743932528471
0.04105200203789695
-0.025895811719261287
-0.00551062287172628
0.08851033078742646
0.09549443647733986
0.033589523955345695
-0.051536993830116645
0.05177995927411884
0.05023012285025309
0.04406619579237464
-0.04292208547542084
0.10912540268893832
0.03874317437666654
0.07512585953746895
-0.017341056160553793
0.006791687135515124
0.003494796239779656
-0.04266776302418017
-0.022054996114265667
0.03510547367017674
-0.024633126220601997
-0.058252298031505646
-0.06863135821581755
0.005456662927353487
-0.10689156101007338
0.033976940281528055
-0.02972604855081374
-0.0005678885370916678
0.04321383026095431
-0.014011506451165357
0.004177176647525535
-0.05370784976488471
-0.009410054494304881
0.00013530749908460606
-0.017588979769895978
-0.007174019564656709
-0.018842819952100996
0.028219170892100888
-0.08314306206550587
0.05725067772782181
0.010332621045843579
-0.03928583805034382
-0.06769001698352412
-0.0027353634368094053
0.04624056905019344
-0.022401687968863104
0.04939551831045838
0.010502398955831977
-0.03659296538695834
0.06606722510867279
0.05027110488953949
-0.02156003165356377
-0.05770291989868064
0.03451914444688361
0.014712783430597313
0.06125459717251597
0.018733977047068726
0.013062732272854455
-0.009904489191602748
0.047829621601630505
-0.02565857931492513
0.028628293337585486
-0.07924052443976852
-0.02808855187700783
0.06093669865045203
0.061492344851954844
-0.08271250205073934
0.027151709579741196
-0.05747965503845795
0.012363120859741304
-0.004220541944664781
0.02706391001963639
0.06989270863263708
-0.0334708661819555
0.09920169974485663
-0.0032126295648316067
-0.06445675681463674
0.024509929978608264
0.12736847628701703
0.08556289681445559
0.14262598000836713
0.0031642309038074565
-0.11409109085797331
0.0166451753167406
-0.031613972751685294
-0.021345258065379194
0.042700679335492486
-0.044147033010260406
-0.02546858871300885
-0.07093041344439673
-0.03874677532725114
0.07061515240049682
-0.06568740332840892
-0.05399599937685662
-0.0164961684275564
0.028901906535891943
-0.008453528650531191
0.0005728450929223442
0.05411681173811377
8.907842449572427e-05
-0.04845041303206616
0.004028532926973564
-0.06418559062663381
-0.07669717875499993
-0.010727839217869023
-0.028910526177652447
0.005572830068036475
-0.0023626533363120946
-0.09549649901287909
0.06314598483559812
-0.02659419242302499
0.03648998173390937
0.05596472493052861
0.00739148267978801
-0.017134017000616317
0.038832493526877954
0.03182405093748137
-0.011804538582500532
-0.017901200386250673
0.015872422981209375
-0.04982693764366247
-0.02197166741743554
0.038598761293221734
-0.010683652454662849
-0.005789647381931523
-0.0093880583217225
-0.020974942026447393
0.03462153200886483
0.001475311052869268
-0.003981946048634042
0.05002799168221936
0.02930072962340958
0.024749904319665627
-0.11896663025367663
0.09279094872716871
-0.0933868477743133
0.01068624530969727
-0.041802319649743014
0.008493666185012577
0.019110729839849912
-0.05502729692484314
-0.005120306258093285
-0.023406506200016018
0.004910847254968539
-0.04751092281891183
0.01174587349052447
-0.003298951857835155
0.07983324006588718
0.03100262300614374
0.012433206404788656
0.02296783692458658
0.03167780390770365
0.41175359042772625
1.0626244534756986
0.49296535200408537
0.13744444576372397
0.049506316300892646
0.04371711026847292
0.008053910378211612
0.0035715928297833386
0.036276890109943706
-0.07577228064691674
-0.07958535546126744
-0.03903198354109712
0.06133007763619434
-0.022875929198478938
-0.016833054391109496
0.03891018337978228
-0.0715137986406306
0.02843197836846652
0.010001305653963672
0.04003465289075897
0.020848580771067646
-0.012586164925577167
-0.07251019300178274
-0.004859026411227019
-0.09256895371946809
-0.014419012608810936
-0.007964867626908024
-0.0320071073029465
-0.0024756150088604666
0.009736378681673706
-0.02585598918570946
0.018843455403489293
-0.043944691393139924
0.0404257150021889
-0.03005733244682962
-0.07927781643888752
-0.002353181617147007
0.05880128658438077
-0.0846149380565763
0.021898509826908094
-0.023862874654651808
-0.024725452221794533
-0.004183976268655695
0.021232148865546155
-0.028699133451980524
0.08322379696892213
-0.01709520098614123
0.032275049300982885
-0.10041923864717427
0.01665024652712369
-0.03490469777934193
0.07853135958004373
0.02919964886260051
0.03157353649532762
0.040644736326685756
0.010463616530298444
-0.011591892086514198
-0.01939424459037912
-0.07355910884948062
-0.018511193686099697
-0.0719024015787198
-0.0060347087979398945
0.05395900603532638
-0.008119578024788828
-0.11114869675835529
-0.10489932292818734
0.026347325373131964
0.05783743657070814
-0.015547007778588674
0.004932800716046583
0.013465183322996434
-0.10862352178713777
0.03354139131176383
0.031661565541124696
-0.10079275625152904
-0.005355181213915526
-0.07229362232712265
-0.0014193255098979168
-0.049192039008269024
-0.03313080317330388
-0.015001714601086411
-0.07134477766849266
0.05163389979006055
0.061280540730841486
0.01613182836018467
-0.005462672139290634
-0.0205529115935449
0.043968202417485384
-0.024976646113855677
0.009271840764018121
0.004234443253374745
0.029629183027818404
-0.011115207614676409
0.014176249253026336
0.005935051538054053
-0.0308938413106302
0.05048266786438931
-0.0998848797877654
-0.03732431449571348
-0.058438958485438425
-0.0006661413402158142
-0.001510852152345312
0.12327735981685167
0.011000809058875868
-0.03190293878974309
0.08345624400678886
0.0011093028013644353
-0.0038583862116184538
-0.04823823633179765
-0.06407959029246926
0.014818860710678065
-0.08617149309779698
0.07731649244958713
-0.09216862338460606
-0.0030954948893730156
0.08437754695509031
-0.04536696186468041
-0.03719305693473453
0.002177988511254469
-0.05325257732935497
-0.013496166364138154
-0.028589077117480155
0.04125399259571722
0.0321138128172864
-0.06793216961836777
0.013390398671452586
0.07645589553829639
-0.03242190490422315
0.0036535872507117853
-0.04570471324077126
-0.08806014423274225
-0.023668275156958515
0.046411573567053985
-0.037565660867329154
-0.019048940930538827
0.03468338033378379
0.05143682330771228
-0.04109342885018818
-0.047353400940970486
-0.03927517911988718
0.05408361877342795
-0.009711967472254432
0.010805189407934311
-0.03749897072971825
0.025740741071612467
0.04234913371366503
-0.016513923941189123
0.06620436168696996
0.018876760274221447
0.06931512846116424
-0.01227108669148319
-0.0016859783310948066
0.05138979528995161
-0.02025532628426646
-0.00715571528128129
0.053309550238429204
0.00769433421142205
0.04213111368606249
0.1328479250819807
0.49004270931823224
1.024134711632351
0.47964937466638174
0.1294443985605401
0.027723052652618013
-0.10627976166659175
-0.04805462481966217
0.048186996110571874
0.02736728152553305
-0.03570088568545469
-0.024992460558126622
-0.016023394266775792
0.010624788419945956
-0.06623591724603088
-0.016261609408578362
-0.013762462456504239
0.01612777499206885
-0.028524680810656372
0.006623203791216931
0.059437171186618024
-0.06658002659839356
-0.007729990644640569
-0.006994786395360393
-0.0031225642585827134
0.002098186443206992
-0.048340416883016546
-0.028167604905291296
0.04254171180860508
0.006679639381747315
-0.01989653930513449
-0.003641391200832859
0.04547682645066828
-0.05607064899153881
-0.04242179535980317
0.03254987480878552
-0.06328341114925841
0.18133720324172847
-0.059105145722997125
-0.041923674565140207
0.041715182446741474
0.12086676891470774
0.1065103202730611
-0.07153793446576084
-0.04137286229111788
-0.03241820279230078
0.009215390729222558
-0.049851599719823836
-0.06467586416156168
0.09003084047979153
0.07481140038214333
0.06924535695835138
-0.05948984665991791
-0.06396731143372701
0.0378836729320201
-0.09334678887869234
-0.00018879557805032493
-0.06119737032180156
-0.04293479468651666
-0.053686806300632585
-0.026910232572276413
-0.006202675156368413
-0.0047037870928527
-0.028082482713436066
-0.06254868694573461
-0.06011397423291211
-0.01298011933117628
0.0063744215810278455
-0.08818058782739896
0.08149746858358393
-0.018301475925234345
0.0463398057581218
0.052595941233031275
-0.04371540035512389
0.07765042467852451
0.03331396293721111
-0.0164990475542598
-0.01961252502060168
-0.10619370489856826
-0.002348068972018967
-0.026273959792299857
-0.10288662120439279
0.1002178618904638
0.04320975453436027
0.05520871949868718
0.03990494547041703
-0.05139002787123584
-0.048549076850939774
-0.01458503919991605
0.012628754553205616
0.020561198054671766
-0.031024161291523817
-0.024636744010968586
0.02545154347792042
0.01855742862763271
0.021079831896541317
-0.11546268117774068
-0.023122081961967196
-0.00014355020964331675
0.056235232006064895
-0.019985389827726886
-0.0916591803755415
0.009303927658858157
0.0455773449343987
-0.008351947759810631
0.1086958604607377
0.018298746146882153
-0.048262162443598114
0.1300402972382245
0.02600973361477026
0.022540375689528647
-0.025652819519956127
-0.08071936956868359
-0.014728412439844346
-0.011940817974774514
0.0388159657570355
0.0037401086385876257
-0.043351300079117604
-0.02341543600473091
-0.03878697892947394
0.022887595234329636
-0.0261887362673776
-0.05544530066457696
0.0620265926802202
-0.06578283058758524
-0.023006031121845478
0.08568731008475725
-0.02252344705464701
-0.07052357881820145
0.016828314746595296
-0.04376252160322334
0.01681372139885393
0.02416976854394602
0.05873381112044967
0.11766420132735195
0.09006131836585932
-0.1081900640109736
-0.09096288122507543
-0.0032123229021548735
0.03750030268072243
0.040332694236887144
-0.0800455753537585
-0.1034600630893354
0.05910330788695493
-0.05787450514631091
-0.066181817894978
0.0017714676147892806
0.035589727328313676
-0.029140903288384385
-0.08653907369434383
-0.014052084224789086
-0.005574823311621696
0.08151929819157912
-0.0042334392657017985
0.055684636486250105
0.4591706979928683
0.9963196708066957
0.4870172428878547
0.09563614265213939
-0.022780891919924606
-0.05383600289396613
-0.010433697341019371
-0.0019277686051600513
-0.05666856616984013
0.02735360783576926
0.04134161876334416
-0.04186199808670415
-0.003950278859157876
-0.028218902593364254
0.01293124126404357
-0.010899343293738074
0.03164863735356626
-0.000808907305789472
-0.011057945530384874
0.045989162967521195
-0.04714813600814398
-0.04476944656659024
0.043564563517587515
0.05365476765364788
0.03704591821153367
0.03455461304947014
-0.0011375950676798215
-0.0782710456834006
0.020062962750311275
0.09169274649398208
-0.02471375272336517
-0.08235513887002816
-0.03180325505835185
0.016886481814527923
-0.0048405659729046785
-0.00034681433608294156
0.004972783363926425
0.06829374672693259
-0.022180220956173266
0.034300468902775806
-0.019487033398188098
0.00797879048941578
-0.06276243197110537
-0.0019482513916419587
0.019878143145869845
0.010823262442518508
0.03599399977430117
0.003047347394924727
0.11317066037719073
0.046790189087878076
0.02203528288830969
-0.020922438548960535
0.014224611734486376
-0.014516679206267964
0.03121381904778291
-0.0074422807218716336
0.02108321276766138
0.018976969923197848
0.08227768859548874
-0.028552804195688015
0.009409276546591974
-0.006265879985037208
-0.06130075940398925
0.0348641488666265
0.012747966965846735
0.006616195822850915
-0.07832707968034164
-0.05058535931997907
0.02321531317456551
0.006971737166381238
-0.03133423673889142
-0.017094044550760953
-0.1094574927683278
-0.01558293492291042
0.017459155617846077
-0.0897190724042384
0.04203657287523185
-0.0077897610859044624
0.06657153315003674
0.03948636023321188
0.00645247989923794
9.134713666172126e-05
-0.12395125376280423
0.12052607032403494
0.04603828890527339
-0.025013660105528742
-0.006134831044446416
0.06829846313585317
0.07245794607779464
-0.03259130403934705
-0.06327095690164636
0.045567449451565364
0.027751523467963307
0.02773782864898987
0.078574932424889
0.06816946426531816
-0.0005188658874201089
-0.001892486118036611
-0.08377016057146598
0.022779734538120676
0.014395397580608253
-0.03364870126448937
3.91471624131092e-06
0.05162490275908134
-0.031138344814322788
-0.09855973246804271
0.056215420032959054
0.029733414475474302
-0.09036029339040581
0.0550373154786461
-0.035916878013238604
-0.024362940347569893
-0.08449961459151051
-0.009717005547486045
0.03978820495096871
0.025412942234323995
-0.03898826952295323
-0.024055748038907303
-0.12773555938300787
0.04500331403915347
0.04558275755257514
-0.028281320738299778
-0.013135355267168436
-0.09099932609250413
0.08805093887832992
0.06254306167526867
0.029893621657414576
-0.061287327210011004
-0.06568347058207749
0.01828064038284745
0.06721272059328524
0.035920208517023135
0.06528194755436233
0.04630441741433364
0.020793984811850685
-0.021724395036143526
-0.015599858329114091
-0.045973151159895004
0.02036459435556534
0.022091493735049997
0.05335275361014701
-0.00904841083250557
-0.056880082236281104
0.03519624953092817
-0.010407721892889172
0.008837136396170191
-0.05381163785296662
0.03224454302919707
-0.0039464217288408465
-0.03499615799001887
0.012281644133511072
-0.047831277343898984
-0.016075852821687518
0.04499636136426391
0.03278017103360196
-0.015505493352223357
-0.028887921091845348
-0.014472254021280715
-0.010336795365160975
0.12285479452037625
0.4646894363633279
0.9548299188992758
0.4594519716444935
0.14302358330648104
-0.010331439395435772
0.035042732298801754
-0.006567600009047297
-0.013260325222144542
0.04081096343529913
-0.0843916261915393
0.09530379225831458
-0.059318537739951493
-0.036066218399261545
0.003768351911216886
-0.06495151859308078
-0.002927905063159404
-0.027506334398904115
0.006805697395880311
0.07470840002120403
-0.04789360858303793
-0.020735668231096665
0.06868478586479992
-0.012224780863144066
0.025461665975307954
0.040707367964113984
0.024161573235171575
-0.0606472228757203
-0.011934766395811515
-0.028256528348985916
0.08099904001815812
-0.032806345390393815
0.08768913467444173
0.03548067815521969
0.019677877992948248
-0.035029387700475235
-0.060993750050784515
0.008834144659804588
-0.04052287526506609
-0.11676511905124609
-0.04077702952923193
0.05938579905668907
-0.009852354426418493
-0.013079590506431411
0.014377878076679833
-0.028144097268237814
-0.01913484048342514
-0.01171384815117294
-0.03815729247186608
-0.009939877885894876
0.053549098442062674
-0.07156541694494044
0.062277573297043004
0.01798717884566883
-0.04471588421717096
0.01850879332130498
-0.07045801073988098
-0.055402107927068484
-0.010235854815699587
0.003936544506968286
0.009563716349930413
0.12214679635368259
-0.03652976651217836
0.0925734146588193
-0.0681108103100786
0.07027373851215371
-0.006977998262466681
0.03241972390132556
-0.06230283885575044
0.017627549367869887
0.04172525386856457
-0.03407424542926175
-0.005108840485741372
-0.011442661221423777
-0.016363404702441683
0.013917988881552688
0.033949845812420935
-0.03500906209554624
-0.10555683999372377
0.06531267125567644
0.07475518384058431
0.026664000780412485
0.011973943530612171
0.07941061975618983
-0.008381260452117444
-0.038990666442761744
-0.02491193379717479
-0.040113772639256286
0.0484762293020804
-0.024613482322525387
0.03906701078271205
0.04722693385668736
0.055861872910239634
0.009005641446819545
-0.08896186914196169
0.05702025505844608
-0.019394625548400976
-0.005908007266459464
-0.047973308415208235
-0.0073005480332318995
0.057966074464684096
-0.004426050944702246
-0.06315407726066072
-0.026414255134199306
0.03466130422456108
-0.01948553127787067
-0.04396205171583767
-0.053877101103918225
-0.04176157137939273
-0.01985292334239535
0.03360796826379291
-0.0011689787772124426
0.060262979020136734
-0.01825637943684253
-0.0319730359772873
0.07867345234642997
-0.052704633256039884
0.03171558995959194
-0.04806246536993665
-0.05419825724606706
0.050126362198266605
-0.01372716026389948
-0.053990901775594916
-0.05094282840401661
0.022254721757787414
-0.07198807609368835
-0.006758350218172716
0.020812221141988753
-0.03534407280647031
-0.10385144185648885
0.017009661570446966
-0.07501995355278632
-0.02781005511233496
-0.045271677966047794
-0.019906659234559067
0.052579894714761946
-0.07437848122982867
-0.04626362014953113
0.014294699559862315
-0.11704705361213408
0.022565056437393212
-0.013674083517983306
-0.005974519240904904
-0.1019791439265083
-0.04306728970268612
-0.003714876777716671
0.04851200429119107
0.04908708969909175
-0.09533789041769795
-0.07166261851173815
0.019938971826109986
0.038865412245988364
0.09998735337567434
0.4613003849539381
0.9827661161229436
0.37415612723483527
0.07236465192320432
0.003741994167523477
0.07885275457415646
0.0475261941450513
0.05117273176138398
-0.017430852846530932
-0.011430433584213601
-0.07472413727395837
0.02788815640701178
0.04996998183644885
0.029820776885967595
0.035826146538771995
0.040185183770485286
0.04291143087557282
0.02803558719521313
-0.008409515279722932
-0.026742549349655406
-0.08199626808435317
0.06789697815489876
-0.021039625339467447
0.059970288798150764
0.0431282475558901
0.0138812947020686
-0.044198978349444785
0.04587856267549583
0.040378779541998755
0.018761955834282102
0.052783796455010794
0.028043407207415407
0.06581188271084287
0.04939411561983228
-0.03232718702698277
-0.025133906084710445
0.08855129153159902
0.08214112927548434
-0.006523572257044592
0.09055952163061401
-0.03126893814011878
0.0216869169120779
-0.028148851799554366
0.01243404492552914
-0.04903409684655345
-0.001055393510664108
-0.057304620565028656
0.001699911500585652
-0.04460995160931399
0.04355746256517521
0.030080288648612855
0.06416130789035786
-0.056307430774961066
0.05364515447494659
-0.04796614525668609
-0.09109835582519495
0.020168275255754247
0.060175562691445944
0.0034677842726993217
-0.057066772650569586
0.022885490103552005
0.08724512176929126
0.06497893047734064
0.019581449268510062
-0.051509209933477365
-0.015929693309499983
0.008976962600886991
0.020568215250239504
0.028431693535260195
-0.0006503950656487722
-0.04223569679092959
0.01710649765283593
-0.08045946119503802
-0.040686384172940265
0.012762782777479576
-0.02460116773648919
0.06141520479335205
-0.048440320716377196
0.01388383043977756
0.025402959720422204
0.012087490152136523
-0.02732094570653842
-0.06360822632853824
0.03887207087868201
-0.05486632638803403
0.08617600310065228
-0.08131835575646469
0.01642958678048034
-0.05198121262168157
0.04567984406545725
-0.07073940907397912
0.04939491570775246
-0.049253763076324106
0.04799940485245869
0.03780625154207319
-0.04901792730837806
-0.016519869062566285
0.026164994413522782
-0.04188745999236393
-0.038292785855845675
0.04372751385973751
0.0932289908010406
-0.08533479951244835
0.01015296223408979
0.03499725674502258
0.049364003838258425
-0.03842088192979928
0.01834499034128538
-0.07175392054470169
-0.003344360467436877
-0.12496960229431642
-0.0034485600647868016
0.01864522436878279
0.01109151814220227
0.040079222156961136
0.044884865869619706
-0.03760244387326988
-0.02196399033789314
0.08875614131093192
0.03885723740828929
-0.01656996774567221
0.018637135332736598
0.050395680102314544
-0.015794479192530696
-0.03929061238317819
-0.06047141883408224
0.01297644512898255
-0.0046418865464290335
0.030973417166144837
-0.021381194162358237
-0.017647326255634095
0.0692087655457738
-0.025152213663494218
-0.05988939907491828
-0.0010119012658642106
0.026075173214815506
-0.016255907315014556
-0.003953185589855737
0.06302141297704444
0.030593417230806403
-0.016211453344955887
0.021807810842229557
0.09682042869530727
-0.060030125639297716
0.03673828033969374
-0.015807655245980667
0.0460951936968284
0.03678092397362783
0.007500367027561241
-0.0342648427447856
-0.05139257717955886
0.03376907295991762
0.01147079374285272
-0.016477929241946406
-0.09013221867132376
-0.04761171278971349
-0.0019100196386435825
0.08883770759267304
0.4992589430330424
1.0876407055535755
0.4708075807069199
0.13606088781641107
-0.03790326213178355
0.07537696863766077
0.00992506996639467
-0.06526616747723539
0.04963695018418746
0.041170255087789466
0.03389955715785545
-0.02339613105517483
-0.009332274236090529
0.09039818626923207
-0.024064716629620706
-0.05326897175718668
0.012562837866740215
-0.025873013325284078
-0.025437995363278267
0.004140212023228471
-0.01453401596037467
-0.0038558266779592353
0.022387214532405733
-0.02671083799461682
0.014734269208934237
-0.05195526451809425
-0.019712454092243065
-0.051101849643591504
0.09497726674166279
0.025509976267640396
-0.004903423244022449
0.00946154917551366
0.017906563392244005
-0.04091874033558909
-0.054070664408192984
-0.016571126494140342
-0.0028873418877578363
0.029221891069573125
0.027652935641474804
0.07451737048518733
-0.03778162733995838
0.01671497276866265
0.008583378447354415
0.07271186472540091
-0.01978355937378666
-0.06991755570998534
-0.00653980355962093
-0.05334439731057949
0.0031141489763167308
-0.08818139027643879
-0.06684193934804362
-0.03779769995835294
-0.04143065233488874
0.004581194176926066
-0.07706069834609999
-0.021698549884409786
-0.0684035376677746
-0.149106064057505
0.014580221431907832
0.005032913208778353
-0.02574673311238572
0.15543170467148287
-0.03646093464624621
-0.06336279702761595
-0.04062146316785594
-0.004759025853457121
0.030048660982825035
0.09138348375394799
0.04744647850570205
-0.0003444898373372144
0.08836843829036164
0.00047994382218531666
-0.013944814087870048
0.028219026099984525
-0.019891203507520452
-0.05584425796435016
0.0499117692423366
0.04822227946509233
-0.007436851929849376
-0.006483868144461347
-0.03872485382762717
-0.10975493923824789
0.008407467549870365
0.0012673388240322253
-0.04859208569357443
-0.01114042776791414
0.000225821427193865
0.060765097488118536
0.02160108269231754
-0.015993755811283743
-0.05857885747620574
0.02575759036554208
0.03000784723795293
-0.11755597923589425
0.05116489311248095
0.0008754872498544722
0.04267746984851554
-0.056401991599096805
0.016397476011071287
-0.032916238667407005
0.07907970422363036
0.0836349814059786
-0.013731837386420677
0.03814717822138669
0.03737130273976113
-0.027771421284323486
-0.014585842337819153
-0.015054654791535319
-0.0014019930111417236
-0.06491935144859891
0.06366328428651523
-0.009857160451935265
-0.05797146684897708
-0.01963870635004141
0.014323666548135203
-0.033837817794188374
-0.009828492034488686
0.09018502483026068
0.006430395611768944
-0.011197407325039675
0.0012429749558666929
-0.04857731837340598
0.1300624078053638
0.019475398441420686
-0.0424738011467824
-0.020706979129113467
-0.01838156587069621
0.005368994777142636
-0.06826645758996847
-0.00025185404196794114
0.023458780951422172
-0.036306034911056266
-0.121059368388372
-0.10562455184735063
-0.0006633139347718299
-0.011829846378217844
-0.04933243533080724
-0.00667212388888067
-0.03224441171650729
-0.0038327078323950794
0.057698682260605795
0.06948873559533698
0.0646793813335149
-0.08799075398023976
0.012033919581445514
-0.0247647812170199
-0.01859957391383488
-0.040676132920694164
-0.029701157850886756
-0.007973501230950994
-0.08594219389145603
-0.007274523371998524
-0.03227228743441453
-0.06379902670549202
-0.0880627923009415
-0.012593875970301408
0.18490211642067672
0.5010224944944064
1.0455489132311389
0.47696455533106336
0.13448455939138407
-0.08341471496012792
-0.058212702053247856
0.05077384784948186
0.04311719368888151
0.07870648205179467
0.10049109186695765
0.05443465086991685
-0.02571727933818177
0.009614255349928423
-0.00469053549012655
0.0015460659261022677
-0.010550639482381566
-0.01759225227664072
0.04498597018670923
0.0344537997445279
0.024379570000269166
0.04078403232158978
-0.01380060867195076
0.0569825485411985
0.042392489056195054
0.07274714938744158
-0.017681557290652915
0.024823167727791386
-0.004487296648106536
-0.0395484382815049
-0.02324365281873217
-0.02224475844561648
-0.007262928486400241
0.028102336734279344
-0.061210773963280445
0.005008564788234801
0.036263461895354336
-0.09911125791131951
0.07958345745009932
-0.03149739164974449
0.05682965956572431
0.08349112013410273
-0.05422880317988445
-0.030398117263584136
0.004330547050213784
-0.019098305558552672
0.07898310892178542
-0.036417970774256125
-0.06751407975861616
0.021403129691026507
0.018108755452560653
0.020329067231827494
0.11066904763799063
0.02072324787974068
-0.01503680600804108
0.040178485089771954
0.05197675703430225
0.013616663295735324
-0.05092063960999824
0.07868690565783067
-0.021175208399438927
0.10818739392433141
-0.039116134423769856
-0.05191033786870282
-0.01583531230628907
-0.01857360897199162
0.02922942692085151
-0.0277701404813539
-0.031253722575367966
0.04915308111816192
0.026633141368420307
-0.002952574118602469
0.02145758860210323
0.008381881906932424
-0.009900602132595422
-0.01491691249170686
-0.026877734327385872
-0.021753901094730802
-0.013283483146929299
-0.021769186635249713
-0.023990312257265976
-0.08168892822180206
-0.05404326122386184
0.05050612402429473
-0.0681806148731851
-0.0588504467503043
0.031625408161033174
0.06753430412002423
0.06359616304058527
0.0451302257803137
-0.026076677920294406
-0.050151729573189176
0.03725253714970087
-0.04795290057834239
-0.16203063761620712
-0.09703767665209921
-0.041078709874425336
-0.023711425147601002
0.004149948329156867
-0.005285053021443924
0.04292155990439121
-0.10123293381824175
0.08703509232058684
0.062364666081380964
-0.048115742414152535
0.03963717057482982
0.01739451261345812
-0.11708927383063489
0.007517191940103839
-0.10125253557017169
0.057584950303338225
-0.05415517790132554
-0.025429354295558683
0.1227886453965577
0.01205614773221387
0.019020423390440636
0.03784256854786843
-0.023855862714692627
-0.022910901355338006
-0.06681650193061958
0.034940256602246
0.030318013441890626
-0.09981793160116675
0.07234175551778255
-0.006813267768213053
-0.05151690614347453
0.030220338410803394
0.019307661754410052
0.02368019767515643
-0.010187353637294075
-0.027142314415338955
-0.007220902800742505
0.08657930440382952
0.0002466869093045134
-0.08884376289674452
-0.060703045998233174
-0.024644468195535268
0.06360588929088726
-0.07275347049348939
0.01898334780440553
0.04579036272618466
0.030989085092717906
0.02995570054017975
0.0442575080954697
-0.05182387840092733
-0.0061859588603527
-0.031088908968178244
0.09869364858556284
0.016992511331941337
0.03596228489198326
0.03792120097012886
-0.059184203277393245
-0.04626733938074764
0.01101279926557107
0.017518237306135654
0.04278454687471881
0.03140093661267001
0.008187485958635516
0.031383326674752035
0.088656997069353
0.5490454772848422
0.9711772839345095
0.5150221243493511
0.09673329136388932
0.04545716574370962
-0.03927616397818784
0.030548360549580655
0.0766059502276258
-0.015425754067762826
0.006910526091691756
-0.0062443989647606845
0.046987274674895406
0.028144530284964872
0.0402004111380829
-0.006359681518591455
0.021163974815823033
-0.04809205477162496
-0.047432086963440624
-0.03321198269346712
-0.05879224493892792
-0.0061189477229134604
-0.01691111713092235
0.08881900487225376
0.039619730971647116
-0.06114346151406422
0.0860102658764972
-0.09429420886536621
0.0035279010596403204
0.046846510272250064
-0.022050988286759356
-0.007016150281163586
0.019076899660073855
-0.041098210816461644
0.06066544070083553
-0.014873561270263395
-0.008064536242533907
-0.0493417457931602
0.04287031614626328
0.03604727795291324
-0.010258051611301472
-0.022084546468296412
-0.05425748417012449
0.060605364629538895
-0.014156613501886725
0.00841074594963438
-0.04723200064814784
-0.018738422762072632
-0.0644253507296224
0.012280448735402742
0.07040757245043243
0.0020248033106528476
-0.026578248225367834
0.07781459878585291
-0.08526804051076989
-0.002244545096742392
-0.01819562408233402
0.005144987991327551
0.007500039993631651
0.0019527672820578504
0.02031993120571418
0.022393533888316136
0.09001428356373287
0.0012318604620417438
0.04028054722381755
-0.06828585716310707
0.003790348310734881
-0.02053641076319017
-0.035336738038407214
0.044367298838318546
-0.004212085263376216
0.02077477721747386
-0.05484799358788535
-0.07078025072487226
0.10288867702758307
0.02214796285836075
0.013209367408485924
-0.08013870531425307
-0.04879935049954766
0.008836892404819432
-0.0688869060030637
0.06770627037551197
-0.04336419927330889
0.05012299920024613
0.016146203834868394
0.004328269471924581
0.0769946880409142
-0.04457448667417502
-0.07882799029918335
-0.0886512212032377
0.0769739609769435
0.06309509604131439
0.00212124838401063
-0.015356539680905754
-0.029019125283151995
-0.04599567471167543
0.06289479559357508
-0.09550636996231746
0.004669378217145514
-0.020480082803614113
-0.014293875633392523
-0.056106589137052354
0.06633546238064582
-0.0973181087559647
-0.004506742468747174
-0.0156484527480053
0.13870040231401978
-0.01265433304179983
0.0003873568777844001
0.02870645272595962
0.11659927421395372
-0.047056327404196664
-0.05997576791794948
0.016037822577448155
-0.09980655370180885
0.11790695748035672
-0.00033997991798066036
0.059793112592892654
0.011321800769159604
0.042326820618401616
-0.01448727084327761
-0.0018541831585375983
0.02899302328403508
-0.06348728445762852
0.01651534163818752
0.02396867194879125
0.003047497084369737
0.004214378932138332
-0.03741014465273287
-0.03587742603291357
0.0787406719640614
0.05635225057826187
0.04650327712371032
0.0034557844475443123
-0.0342046644860697
-0.03113715249329841
-0.0074143729836183185
0.024623693968056443
-0.06305885196241887
0.02588805967745004
-0.018856042968038667
-0.032961367374523536
0.05087959511714041
-0.07956725930518417
0.061368630793460735
-0.0064681745876254615
-0.036304995019309456
-0.04735016569975992
0.039364266830085023
-0.05182719445109746
-0.021167635581116978
-0.0823112673915533
-0.007737500016567301
0.05445495818290104
-0.017384456705435432
-0.09762993110209878
-0.06785204597221715
-0.05779259130863529
-0.042285425258812605
0.11443302232293824
0.43202779081121306
0.9310119942561971
0.5472922000704996
0.09428609913324759
-0.028191969561800097
-0.029999263228416513
0.021896907621298915
0.08425554905492985
-0.00419096622217108
0.02423784257903617
-0.0447088724754876
-0.024400873541687174
0.028676928866636316
-0.02897865344944278
0.05890879860226314
0.008320197182895315
0.09589367281745027
-0.08759706773029466
0.022197854288809535
-0.020904768790486212
-0.028333818156767072
-0.004504644294401213
0.04210433359109647
0.008385514807915613
-0.04379091565713959
0.028002309506967513
0.0010440585147853474
-0.056815510134249174
0.013500280722656625
0.012970228865051045
0.0018360276868256737
-0.07233954517896002
-0.01934749727220283
-0.0013550498030403583
-0.11194190455013237
-0.009443205733897772
-0.0695312806583
0.0029935950692898633
0.046294043908396774
0.021663828987097726
-0.028967823694534007
0.03147386283345851
0.0028924481172796675
-0.003273684372773172
-0.061944530161281125
0.02164048024113574
0.004528090674520737
0.020305297313360494
-0.12444165179852505
-0.030884814230350895
0.0169122161941336
0.012298187652977651
0.0011019682777854908
-0.08613736570194191
0.06402389157969057
-0.055162233138750794
0.027423648899534067
0.03941101262031384
0.05882190863098034
0.013219204537478102
0.039266737231897164
-0.022443513818223768
-0.002087107216223512
0.05419100554992567
-0.011987242230425306
0.07309363614747606
-0.07059814704625249
-0.006588994020118391
0.01505166703589436
0.06480988436327022
0.0025198806660417087
-0.06405936438775323
0.020330421816098475
-0.048507618066922914
-0.0663945551490675
0.033113092059197914
-0.0330707621092829
-0.09736462173335515
-0.06427321106595489
0.033544376316566336
0.05920850461290909
0.0620559710265117
0.005562370084690675
0.054469329356031604
0.020132608520218757
-0.047876328891121894
0.06573898709422003
-0.06497834046379147
0.009563179103430627
-0.019378790504527926
0.040962314610316526
0.002501996080457582
-0.050570081710408846
0.022582828049403137
0.067694281624012
0.11364865066318744
0.06553596403775432
0.049841331130293244
0.019980320413679444
-0.12386948902431144
-0.013878711663388743
-0.026039388464311714
-0.05123812964292732
0.035658657450848785
0.024053961517186886
0.028833826250933548
0.06444618000226217
-0.03419668112704621
0.006135908899200616
-0.045560189290448784
-0.02009482021707376
-0.04716093490254353
0.03733771997892013
0.012151077888475702
-0.06415870566752967
-0.03361466576471763
-0.12877112020328513
0.03384191986318902
0.0016683547657956443
0.04481035146029245
-0.02401859348453617
-0.012075755769988759
0.06656042464419978
0.04926745226580199
-0.057357193451360734
0.07008727190444891
-0.04410630127839436
0.06777862517428695
-0.007326319895699002
-0.1476113466615183
0.028986998083230842
0.07718451707267177
-0.021864023719180947
-0.05068527866450811
0.03269108573861625
0.04752404965242129
0.002091242768574229
-0.03626725913019085
0.0057916668682112555
-0.035695591993698934
-0.020577416457899636
0.06378966931717721
0.11526136658082985
0.03231453578493162
-0.045296132970050966
-0.023375256443427188
0.09509984054667894
-0.013015730974116058
-0.09247567067911905
0.011311387708444457
0.0047646967726377686
-0.035631806691589
0.09706490609949237
0.47321513154490275
1.0142939970271059
0.5000149311978889
0.10435495228756551
-0.05853963541852045
-0.059490052442811636
-0.10867437723851457
-0.04465166103239416
-0.005410558550305934
0.12115223236354766
-0.013755767874220863
-0.04602183997858674
-0.0017033586885615137
0.022482388179077818
-0.04765417887158416
0.11828541008690972
0.03190921585660641
0.02392834191330249
0.05538790256589517
-0.017449838921764018
-0.001297257568734089
-0.04740671745567184
0.0026084274743529167
0.013801464059841699
-0.05041350773359509
0.07930347210783223
-0.019560361751953234
0.021057189370925107
0.08399228397417362
-0.11022968306861017
0.0553541529594525
0.019379090977033865
-0.0314039107566498
-0.08500923908132052
0.088311792862016
0.016704155835259745
-0.09032169302345659
0.05528534855030172
0.033088757019101946
-0.0922598537508628
0.053264361868360234
0.05980635792827948
0.015616928410421452
0.03373659327722098
0.017861842772639032
-0.003226165208784399
-0.04944515539040106
-0.02888800145886017
-0.025612035608032813
-0.03930789475543623
0.040226803322247734
-0.0356113021341516
-0.02707733307576178
-0.06860627879865949
-0.055914937932330135
-0.06096066996959407
-0.01165777821712697
0.04966896054148377
-0.0036581639579039067
-0.06207483303269504
-0.0021287545789367593
0.01138485821297792
-0.08062032094241528
-0.026986296539128058
0.10929688413083971
0.01871532533328495
0.032236927498249676
-0.019586013923044935
0.07911296194989617
0.01838382867122536
-0.0198655697976053
0.02711965940753075
-0.031156972262898625
-0.010125709547569776
0.07680946156377509
0.006005012724410508
-0.012307069111882583
-0.025276955488325738
0.11802120276689845
0.028964463349047367
-0.0208590200225766
0.09475492343636645
0.06196535018051719
-0.013161062302471285
0.07982080063911567
0.03347287734483108
-0.03010127296181636
-0.0510407060240629
0.044374720948439944
-0.0727117596248611
-0.01570432380343449
-0.01902128722414301
0.02460950616390779
0.0832948391095223
-0.05864401597580983
-0.03407391346899471
0.06475482305956903
0.09044539440954308
0.005013245416183944
0.051735786864336455
-0.020585097743527424
-0.09925761118408417
-0.05158624575466312
0.03485336984745246
-0.05781079203320253
0.03841820797060907
-0.02718248013390563
0.027637569474225184
-0.030320501863137922
-0.05659872839719099
0.06280137640886807
-0.08283321152134077
-0.000576018589671909
0.03773784444308029
0.0507774246880258
0.032170065686018455
0.05044380058164906
0.00518235505678793
0.08905522934422964
-0.060296307930564334
-0.0870104134164516
-0.020186401287556804
0.05222059427039985
-0.06058547011665495
-0.048606492593486095
0.04735276232766752
-0.031237183249646885
0.039349724920806656
0.03346183019840068
0.10812085252604285
-0.03184362664807563
-0.024942049331040467
-0.0028823018424653166
-0.006992953993963571
0.05834728649999631
0.02826874533353413
0.034114442822749766
0.028980747127767062
0.023858465830425415
0.022949473593661826
0.021060762925431152
0.026664289493725825
-0.0026843343883810426
0.0572821433223105
-0.10596795826252668
-0.011342901301341482
0.012979357150344779
0.06281693063295073
-0.03167977300932741
0.04373129158442465
0.06435775339073911
0.07089097605510351
-0.011221424166116673
0.019063037061659363
0.04596278288199951
0.15003596547040396
0.4882425079005669
1.0171613043639742
0.43100281267149987
0.11353650426072101
0.08414276217638376
-0.008262743951692604
-0.048453006343437535
0.06239592934194969
0.04364906994464668
-0.03108007190703556
0.00953651141742019
-0.0862631373064866
0.06759265728947465
0.023226088707370147
-0.045448594243243455
0.015501407971507362
0.027494252819955236
0.11918856881112272
0.016993734649638357
0.014135402185880414
0.00899792344447667
0.04080577381144757
-0.005375973029365117
0.006945581439174277
0.036187246875376514
-0.03911396480375318
0.009591963210867886
0.0021346154932784245
-0.04249132220151339
0.005297997255827377
-0.00785697835957156
-0.015770270577825478
0.0026871038453720004
-0.09323766565080915
-0.031575082397130326
-0.08730402751303565
0.014249950218063757
-0.053579446909173004
0.032255737789491444
0.018922137641869945
-0.021025824807995627
-0.04423139841350199
-0.02370627917917069
-0.0067804494072371164
-0.021747142318708515
-0.038563376567899744
-0.027728667122017547
0.09146272105032809
0.06166644605479269
0.018405757225292998
-0.026132959815859627
0.05077786710616829
-0.048635412671938896
0.04747464349418993
0.04434162223322862
-0.0589569637183221
-0.03870634997359625
0.02743302851988875
-0.020848332035524914
-0.0847885745388349
-0.003729485477665376
0.015361869505700438
-0.056104925750360635
0.03273766762184933
-0.0316688050566152
-0.1388971748048796
0.03430674258332897
0.022371590020200696
0.01762816443790238
0.08873596863866988
-0.003270905003170594
0.0188551927816325
0.026087688271507467
-0.025005059094048338
-0.03324003076177971
-0.011070347875941331
-0.021576274807270795
0.04762311127844895
0.08484303318914387
0.050964888933012355
-0.03549624267174578
0.03650490959897427
0.04751675191310267
0.015387448648866882
0.021827948388897386
-0.05282020247809083
0.03966271467876288
0.03938103818378665
0.0068982066877914016
-0.08652689490869775
0.01819950141617053
0.014976641659077559
0.025283232195238606
-0.006419827047228358
0.03683083060036257
0.03065889994529955
0.0477287308409856
-0.07799093946139835
0.030937432456687782
0.012407427647951205
0.045788103513828116
-0.032256846433545316
0.05351328938348691
0.002581642060801851
-0.021106565298309496
-0.05535539446613727
0.06047966802227374
0.05914012848475744
0.008068342323082501
-0.0026148463444872674
-0.039823873183993434
0.05093766429142557
-0.054427056747386585
0.006483211791011404
-0.08766905792971513
0.13538581277395367
0.07132161640751618
-0.04009381429784484
0.06829956357932258
0.006937270428595016
-0.00038681842077418625
-0.03428790816979746
-0.12114153426486651
0.01593807065748334
-0.08093527193224886
-0.024812736552533746
-0.010142644639168264
-0.1288046630672459
-0.0744294317661085
0.022950205128770797
0.008280704158911306
-0.07680564238194762
-0.013060238664921947
-0.08174477515170747
0.05161030651713403
0.011243641081848953
0.005582564522929214
0.04838248941761103
0.02341633419865755
0.02811319182602632
0.0015946383453870417
0.014256385200451714
0.10576206724550011
0.02208507518147307
0.05567077177863931
0.029153049300285658
-0.048908868479398154
-0.04060732810835123
-0.09675797277074558
0.03458853524072374
0.0680718642950977
-0.03655348836333119
-0.0036309115720445234
0.03718826513977696
-0.09539548899897987
0.0012682983091017105
-0.033464916259124476
0.0438210243623507
0.018136489277121103
-0.032503495609965564
-0.015298140088106031
0.14400951898010317
0.5798269543424271
1.039375721216973
0.5735481730801237
0.12307141738517482
-0.0659913601060436
-0.03829309956621127
-0.03956750144043755
0.03220474335392131
-0.02601815055451629
0.04811343204173846
0.031251013538518675
-0.06094405215199657
-0.06073135091450761
-0.017950512591061323
0.003939370624527159
0.05625880633713051
0.04430498035400363
-0.0837943318589549
-0.028827188894646902
-0.005683486989719715
0.043979347711615095
0.06399925540417255
0.03999423196612967
-0.05383664081639838
-0.049756937851286216
0.04015960395653967
-0.0545139808994517
0.09941019927283828
0.049866269559237425
0.04719147418634309
-0.049202285341250825
0.05591504705030373
-0.04021515631263611
-0.057990611643731774
0.05558800461142835
-0.006932140294938334
0.0318926514118695
-0.06824816549331207
0.012936254392117201
0.029507557578706968
-0.055185097308182635
0.011704334564874408
-0.059223325471500665
-0.0729577606762281
-0.07722407938991395
0.06491455806830569
0.02988788687439588
-0.006773017456091793
-0.04876282407740788
-0.05480578181697981
0.017532164087195563
0.026330207879029045
-0.020593909047629918
-0.031242163431077382
-0.004378341672967182
0.06926323905917446
-0.11040416552878417
0.010361600748805357
-0.0004143168541420773
0.13250207926611463
0.09572346888359523
-0.0423283341747245
0.0022612028917387995
0.030639990260526113
0.023298379216788366
0.0614694388944581
0.007433862818839979
-0.00979049545035951
-0.014840175833492526
0.01335641351264412
-0.09134145820961741
-0.01661924824983983
0.0757808419597572
-0.02835682034950785
-0.007175225916505013
0.016871464209607293
0.05709455597489981
0.02858147747080349
-0.034625913193748775
0.09948717633578864
-0.01989626169005506
0.09022225280271576
0.02072514766014209
-0.018608775040989036
-0.04062814329949298
0.017280817640606013
0.04588133732584792
-0.009629113130063791
-0.022409614294923195
0.04031438883415095
-0.029072990905931368
0.01713412814863199
0.04303668308093453
0.11831619389503278
0.025456406309669857
0.04723722407554412
0.04387064633853224
0.03730559395108654
0.024267155289531304
-0.017214679875091378
-0.0166236784055571
0.05541171721041226
-0.035677518476741395
0.03176635523887169
-0.06859946944292815
0.0478658621956111
0.04197492166179443
-0.06674798012816026
-0.022873822037605518
-0.011891995105166102
0.00682756815279144
0.03465881638285641
0.013685742208814853
0.08844711060222113
0.06730812897604814
0.07082103191315621
0.035611333194419385
0.09498973455644977
0.03016640917893886
0.054584157911450895
-0.0697086891307802
-0.033297879313621506
-0.014114760988690342
0.08135672275351949
-0.058083318041589095
0.004710264589027093
0.04106198609959856
-0.041512676758358895
0.051412017210299636
0.00703360942968297
0.005516056513019101
-0.05455507485336911
-0.08285295198007706
-0.00895992202472779
-0.041378219307506736
0.044497400761746714
0.017771336863072595
-0.01771546084501001
-0.06666074798998126
-0.01753570527570129
0.024840018873432297
0.0273014481236238
0.0583720940813241
-0.13222616763857709
0.04640732163049693
0.011540690543284349
-0.03717216498861508
-0.04600917084212984
-0.00011551015775873942
-0.08187008652350647
-0.01576671281344041
0.0432463640774166
-0.020750009965238618
0.04056092199748839
0.11272493695822015
0.5544367112631422
0.9853342014180032
0.4722866363755162
0.11540536335593954
-0.007653296310881632
-0.0614959012219251
-0.03169257808015216
0.09393176227952621
-0.08201427504628038
-0.06372321979554174
-0.009148320918160962
-0.04567553074440268
-0.0906078327724768
-0.03226119769799597
0.06166454507643106
-0.02110784522530297
0.06376985776563453
0.10057773625195406
0.019164972177178167
-0.03757072888451932
0.016364063177607465
-0.06779410682774077
-0.04452627019935304
-0.007901304529227946
-0.02618520485695971
0.03625281699182971
0.03101046910237992
0.00796728805662812
-0.08314709138202951
-0.01786553186225634
-0.09498650306752195
-0.023302902757233433
-0.0038768468980687858
-0.02942911527237615
-0.019308348116696145
-0.14577669016365205
0.018934169819847177
0.023915369558503423
-0.029671322491427333
0.00870616547911004
0.039945194162562696
0.056986229240768085
-0.03208541368577089
-0.10211461895702999
0.04022478911979773
0.08279756794634237
0.0007242156714535975
-0.001589439285433732
-0.044929635834292464
-0.002828716654501133
0.02168417730420879
-0.10918775809133681
0.06300064026832046
0.0321643995961004
-0.026267690955988757
0.04423775704179137
0.01643845301730431
0.05413412224253455
0.02347893251518411
0.02947387097001235
-0.035752260307976104
-0.019976528881310216
-0.020453307476536526
-0.017408077594077944
-0.04021723739531446
-0.0015394725430910084
-0.008496247199994075
0.004264011230135585
-0.08309893947719275
0.03484040839184124
-0.036127331493497804
-0.06917965587575896
-0.05381124392143134
-0.01497552972939521
0.045957399849675125
-0.013687646698703744
0.0006789025105396104
0.037918758541236976
0.026512687870006144
-0.03367938188640217
0.06954430941274733
0.0099119582394301
0.07406573326023252
-0.015804638730402946
-0.06601317494524521
-0.0347255960335186
-0.0829418396427119
-0.01737426652736833
0.005177171278407313
-0.05634956583024571
-0.06200318977601752
-0.0735565647991313
0.030679502342852466
0.03415839222055913
-0.025915626156864265
-0.05779574541328706
0.03032341963270715
0.05233203466385009
0.05597877143860508
0.08959479829942446
0.03955436588032746
-0.05146843419652084
-0.1262551309226544
-0.027201996764096393
-0.0859364807861825
-0.00164528302116806
0.03396143027773294
-0.025623029986511045
0.031380820628196596
0.07277091496430511
-0.0025609542812886407
-0.031036316211974037
0.05077235938002631
0.048636232618954646
0.014549437987992759
0.022529927933183844
0.03489048066390713
0.08510822982260761
-0.0064186939228130895
-0.050375520590563744
0.006099972808012388
0.06771681241421156
-0.03498721747222904
-0.06992714965127993
0.10838554801347558
-0.027894025381549222
0.03236984532606417
-0.023360544920180422
-0.04308011554596469
0.005951029751175232
0.03693224866536134
-0.053686930647236175
-0.03033579594306726
-0.06605950911151175
0.011648377465803337
0.05534763864736045
-0.03577545128884207
0.020499012534715054
-0.07946302332321148
0.061844821945201245
0.025122603776498467
0.01074620022270958
0.040444261504145394
-0.02790090360492022
-0.01985976674051393
-0.04369522256419998
0.05402563768478085
0.02403144929393974
0.01003733985538496
-0.02855053820998655
0.019129045063779545
-0.09644393834876189
-0.029373531868692765
-0.06940303975626035
0.04688515931905632
0.5333834445630137
1.0826497401730704
0.46588420318985485
0.12415071393223584
-0.030927420829279424
0.03967235001319351
-0.027393801778826145
0.016391835662199854
-0.05258538740530804
0.05230276644961099
-0.038458737748095606
-0.012837199323037896
-0.030181875640356123
-0.014117953966006467
0.0519387595773851
-0.0015828818693435097
0.00014070250082036983
0.015554686556714027
0.11739811129087473
0.0027104725126514506
-0.044705446811106685
-0.006045007880918988
-0.11175784767723007
-0.04695802621123181
0.0472721935549044
-0.021527206520042412
-0.024206705706224803
0.020693714339850247
0.005455356441766042
-0.06128543378133697
-0.055685193179533854
0.002438795133472462
0.03973892238505907
0.06003470025426888
0.02498179570302873
0.015618310619176276
-0.11124116810592372
-0.013241081200725362
-0.061442166004702925
0.009315637579149468
-0.003391738234514748
0.012644542068807392
-0.009236162992172402
-0.06120976490265652
-0.028923226832213447
0.026554628764540074
-0.09906157448583369
0.035748456500373074
-0.017413883290880405
0.024226996242527995
-0.01839634208259117
0.008446005569777341
0.00883295407363492
0.03269183136017865
0.07105641670452932
-0.07603300374536909
-0.027920788039604197
-0.002543699338558177
-0.0147373958832369
-0.0445329535571572
-0.046414472645315216
0.05285067718131299
-0.021271851515876766
0.09269332660991518
0.009683926466794286
-0.019247842483926334
-0.017722828620607502
0.025190124677333142
0.04837892752532835
-0.005326589648551542
0.018937678733961027
-0.04909512375366631
0.05012343529354573
-0.09010642419101866
0.023462928676135617
0.02853280260488346
-0.04038829357750704
-0.0926135673789035
-0.026899849159445356
0.02945618960457353
0.04661928549819
-0.09680419190327369
-0.006110201704552013
0.050250638423346164
-0.03872872306069882
-0.08252293650798523
-0.05437919180075407
-0.005292327553070445
-0.04459148162771236
-0.07283164899261277
-0.07954287000499731
-0.08175904854986628
-0.04547677026093938
0.024847215316113974
-0.0027732029286745134
0.00978243393060858
-0.07892399603375028
-0.0751387962568354
-0.032387307954591014
-0.04103001329512343
0.04450097138074257
-0.07491203545644977
0.09727511991116626
-0.00471371858186284
-0.04123208755080236
-0.12561409680673827
0.04778519950521862
-0.021022549610297953
-0.028591945487484
0.07997562584047987
-0.00503000628632555
0.025790577336165767
-0.0021317415116587426
0.04147673093067039
0.03580788122709674
-0.09735584955338017
-0.047075048221215623
-0.00864152363339729
-0.04269851257664979
-0.006967677243283141
-0.00646217449748399
-0.02987995296408574
-0.04122618909670311
0.023834819156424138
-0.045482722774463066
-0.02646206046025583
-0.04812012162108518
-0.0710285721078372
-0.0072483694777709055
0.0774517549277534
0.009231105079979623
0.009538228884116979
-0.07033778734880403
-0.10480702617740861
-0.10982966674924283
0.03950159299326513
-0.08801653587380884
-0.06146776707296654
0.03509988354973899
-0.09905153760778873
-0.06264679968233126
-0.05122426680985706
-0.0514934673847981
0.007646764425247721
0.014132572231787995
0.07052518598352465
0.08045385854313218
-0.07474967515261081
-0.046967431776694935
0.09322380494640287
-0.05361958998005415
-0.015301222957196853
-0.021504657906664698
-0.03157297076588832
-0.052641480290659154
0.04387279371786095
0.0900306436830638
0.01745766249960544
0.4833509958520444
0.9968059010068849
0.4462709820358087
0.07791277122078938
-0.0257291514498917
-0.0012502545382922458
-0.07001461526927609
0.04034094796746291
0.0808398232716921
-0.08246545945892542
0.028389158521227306
0.0435963693164107
0.047277345599219464
-0.010238566197925587
-0.005908312089638291
0.027203849232302187
0.03652215137667284
0.08367474763764199
-0.11491523423912836
0.041947847973457936
0.007988796706193315
0.03400575143752429
-0.07540476076499295
0.00524698213836566
-0.028316714979141434
0.02126617539805027
-0.016106314631433315
-0.00506279313712616
-0.06119915668508548
0.023232850168398725
0.0050762647688167815
0.09714042010656541
-0.07610055340466453
-0.053117290130764085
0.0322298509932477
0.05921709458249658
0.032347987244846915
-0.04664977239840757
-0.014590271222410762
0.1321267317823429
0.01730647311811284
-0.01834976826139406
0.027644592328385287
0.009127338271927644
-0.007241858493267034
-0.11320695939592558
0.022650546114798872
-0.01331903500859316
0.0032166713664356556
0.03416807094460911
-0.02159918604002965
0.04551763735616484
-0.15011826028893382
-0.01667239471945031
0.0034245983351472637
0.029534687777986707
0.05804068817228245
-0.05586401373998043
-0.05258628656740188
0.0059916755232261015
-0.0039541559187681085
-0.007925608074216836
-0.03493215239656424
-0.02242316604568972
0.07494050182732949
-0.0038387995619000416
-0.08316230993898821
0.01045627585941016
-0.027207317426716438
0.12201965567292435
0.013792704857690463
-0.014806997880601167
-0.021363813948124553
-0.0073182104607437005
-0.00459046494263898
-0.001119542022212437
0.001115978057102175
-0.01870008773485346
0.007399213621381568
-0.04069545036793516
-0.009707154663458215
-0.0475583371273609
-0.1639492481447039
-0.005676411174039258
-0.01088215229269668
0.09940828225234948
-0.01761389792246208
-0.02283786981799527
0.057455935926052686
