ecg
0.11929727242063771
0.46634925152067425
1.0359833944019845
0.5180240597965049
0.02869055474306713
0.022584959065191312
-0.00795457093838773
0.07126762431075695
-0.024193813617409413
0.02896219814053083
0.028612224387247826
-0.014914617009883972
-0.03576722447070772
0.0009046969920145421
-0.0443237095897617
-0.0937385369863259
-0.06147103333056819
0.011329793595899165
0.04895154530436327
-0.0559061630434751
-0.022211790300963007
-0.06964009858649338
-0.000746697381687875
-0.08035278528334153
0.03342099013770884
0.017172911124113507
0.012972617832126422
0.0366870353259408
0.0034389866221544415
0.030568273006913574
0.06977327486084267
0.04726500908351226
-0.0026614437081428984
-0.10802485403028089
0.08865621859708646
-0.004412047327994328
0.000888627869039297
-0.04010124145244442
0.029553039313967945
0.04811588038207916
0.053451287174932416
0.00847715248534694
0.019702105092781835
-0.06797186228619863
-0.04619850155395855
-0.057299310360276835
-0.0755601921525445
-0.05380794532285659
-0.047525713545192805
0.06342834478695368
0.05825449850622169
0.004334407379486746
-0.024213454494888945
0.019511127522602187
-0.049523797532550956
-0.008494520992149358
0.06430339639940795
0.08569710234097476
0.05773508128023685
-0.0094379648842364
-0.03189342622805874
0.044187757885286026
-0.0855250882592195
-0.025991052872695698
0.0507130859186195
0.03031638964389339
-0.014052916726270431
-0.0042468478223162956
0.0029699049393706375
0.020199597389668034
-0.011762389006286608
0.0012904589940734685
0.022144628038417435
0.04345169098507304
0.014853981976284895
0.059377057452364206
-0.05188312440048013
-0.048371810261916615
0.012546664999506877
0.016200497490382028
-0.04553686089508435
0.053783466136856695
-0.081079480392534
-0.10525106554612258
0.01910995902898119
0.03790726935041623
0.0537229323564321
-0.02482320657285051
0.0156506661620812
-0.058159073263710816
-0.010382819725304448
0.012518358939170075
0.0280593628553388
0.024557064368322338
-0.005668921875102117
-0.0307251978007142
0.037953187888091405
-0.060324128083019526
0.027505509539750606
-0.005111735318063523
0.03830088488759273
-0.04533705264011825
0.0666890010037613
0.035633797762831425
-0.029577139471853656
0.08681344920402412
-0.08822796629699009
-0.06690167778364037
-0.07893677603526587
0.01562803516962404
0.03166372003047003
0.05581637125665928
0.012794407717314752
-0.06267590229599608
0.09452385532183546
0.012170438986707957
-0.026196904196964917
-0.016558398233191905
0.07653601469174405
-0.1211939681221238
-0.04955448745855162
-0.026581623264653898
0.11343638106114769
-0.04631771617161542
-0.07297621436848288
-0.03597328878884784
0.07336061569824566
-0.019581191026560883
-0.08271136691593321
-0.07278292613283242
0.013297086086597486
0.09535693186548094
0.060636880412089304
0.13191152873323878
0.06760128736159864
0.03529619303280823
0.07137406555866936
-0.06786152394002827
-0.03416505333430397
-0.08483636891787093
-0.09193759528387635
-0.013144514575476253
-0.1012525319327065
0.021667667786127092
-0.023244334782417175
0.0039651504752730715
-0.019581651724009722
0.023999803518556326
-0.03878216817026506
0.0703842732430144
-0.05447705205175138
-0.05569621948173109
0.009023721991532547
-0.020672440957967886
0.06999411615715358
0.06923635195533846
-0.013838036622737002
-0.09177156483758996
-0.024963908877039483
-0.03805714590176129
0.02477055752119534
0.09197420962629756
0.05393967999807634
0.02712041526552016
0.10641692824365562
0.06052002488562214
0.04569516016807701
0.029526097899862602
-0.0017294387148751552
0.0914470708526409
-0.035770632230965646
-0.002157961432571976
-0.0752662632252915
0.03544713388125183
-0.009366754772853581
-0.012882045541597754
-0.018794462350690908
0.05879997924931596
-0.04850600397090888
0.07414716533846737
0.0871571126815801
0.057446713392022154
0.0037200903671745795
-0.05148248484685887
0.0017932417615705732
-0.04439411888831214
-0.005267679477367243
0.052551362173030816
-0.014812079631195721
0.03547762339609282
-0.0003541671308247077
-0.002842383250974964
0.03970571410693761
-0.030498852847449506
0.03759986950098508
0.0040787538853720535
0.06745857760632683
0.0358194296863903
-0.02781911109923862
-0.027459525629298116
-0.06038626182411597
0.0565254211814275
0.03214173866183614
-0.000724338567927642
-0.0008808623694762558
-0.0446377886251351
-0.013322473166766175
-0.12136220635654066
0.09684635380474142
0.5073834654699301
1.080253412892008
0.514357765405209
0.04621709251074988
-0.026009724525204975
-0.005502354953584615
-0.012951322786699852
-0.07570627056868731
0.003998213895272967
0.013179940917387185
0.012195692639677388
-0.013143889253946776
0.08370921444098979
-0.00827302593635748
0.03143142997627501
-0.01994647151632318
0.027728472187141157
0.050165473061491675
0.003387307233257645
0.042463267436307885
0.03685325043113848
0.012026285514264337
-0.04798602942454863
0.010273963384918955
-0.005700005817563686
0.06787817457110949
0.022926205886439757
0.05430395418734142
0.0836816681141973
-0.09722993046408464
0.07979102293654744
-0.015829749931125205
-0.06750919223280487
-0.011051067742407163
-0.013337802275160855
0.03500991917486991
-0.05442199121733418
-0.055454797465379374
0.018530165813231577
0.04855908237166216
0.06119578739289222
-0.06452571529015848
0.07478770064543462
0.010621332645890078
-0.005801399015145423
0.023180429185423644
0.021715280684433305
0.002826439929888026
-0.03544335129045625
0.05756018278156231
-0.013551461436321839
0.007675022829439826
0.06514639522800263
-0.02322276722198476
0.038834748880513796
0.056585981164125526
0.006782302194845021
-0.044382358052256474
-0.10769809947514097
-0.0019596229439425242
-0.0794780050041281
0.13078827069386756
0.05208328459317344
0.025290746299971453
0.05978586253802577
-0.016194349103244642
-0.0009529171843267381
0.0009202717209430642
0.05632160439806414
0.014912108143632478
-0.05850008105789639
-0.0353496664842298
-0.01900255592411651
-0.08653370820103062
-0.027586073669316886
0.07016072922883003
0.05011407728402452
0.021545724902554388
0.046409409637448294
0.012066600345257111
-0.034149535129052604
0.116299667008847
0.11884533699419697
0.06433326970554351
0.02058179999140533
-0.006371273441202541
-0.015045849514131427
0.019487954560492807
-0.009335514465934737
0.047554101256055914
0.019003820427451884
0.019718593029457693
0.10165619815036615
0.002590305677685501
0.031688751338498876
0.06378962663070825
-0.04605939307175159
0.0293641451056062
0.03240482906276789
0.006042040056481953
0.0035631014496312857
-0.030040914596041107
-0.05020022550668499
0.10071203682425617
0.05911945312268048
0.015256375630531683
0.01846561780788478
0.027560055935574153
0.12678114263015128
-0.047787981036227604
-0.006294315871842331
-0.07104614805149416
-0.04377465792527762
0.004736532042315864
-0.07352233428575236
0.09226583326514959
-0.058318682411825966
-0.046798275689918775
-0.01427745453227531
0.0783365963371982
0.037351159088343924
0.0052056716038002306
0.020376329986559413
-0.009393146057675286
0.12282757834942477
-0.05587902090604732
-0.02017618353627391
-0.06793690885083134
0.050390713620009145
0.0971772162568248
0.014766726537137842
0.06202697427370601
-0.06013119149884072
0.0046977212656498755
-0.0005786179931004121
0.07704923873438742
-0.01853517110273643
0.047984948533865326
-0.003669387590862991
0.025782478130086817
0.010514047470831045
0.05670232723347113
-0.08429940087448386
0.009412537751140631
0.01660138030472644
-0.003098332729531084
-0.0192960832954587
0.020764195030904636
0.057706648970557474
0.03980367632852106
-0.013577406623350444
0.03193072622377299
0.023418561681234937
0.0053155509660255855
0.02187445494505521
-0.030126073975235146
-0.021477085058154793
-0.11044951169779477
-0.042552156296869065
0.03751214276145045
0.0362680298930155
-0.06429867983119418
0.04684988941237676
0.1019281617229047
-0.11674075083241907
-0.06807964047053064
0.10534250553498777
0.06443854230385589
-0.014820126244079935
0.03157614072726706
0.10655632674870635
0.019922370701088515
0.02057769684986248
0.07413922121870839
0.060162858238276495
0.03320254311313419
0.06459119752117669
-0.027297954507692592
-0.010646252038756328
-0.01744190112695426
-0.052701135641650146
0.054641607095545844
0.10431809122822298
0.002254392380306355
-0.016524104793744537
-0.022011350347213562
-0.0006501307226696562
0.10229196429586805
-0.028774258271962297
0.046790980068741
0.04232903009432892
-0.07611964484243583
-0.06869933942428615
0.10445401344656335
-0.05391318613225862
0.0658317865137683
0.010502989022244384
-0.09350729044837587
0.06269052043530966
0.0721685465856507
-0.029746697227574306
-0.0091349060105337
0.02742411183474063
0.022015688859251852
0.0652124649384923
0.024002478776816508
-0.0029246169943908606
0.010030932707990877
0.01895749847431731
-0.044730519256983875
-0.023441482054816637
0.02270610011600293
0.07419239792804228
0.5502113806747044
0.9873098506507401
0.5579752945248022
0.04141544385210342
-0.09503101511559936
0.005862816502420595
-0.03915860133135306
0.13794054311235499
-0.0828700348351597
0.002854797321880979
0.022093941642294546
-0.06814945011173654
-0.031208885676700507
-0.0006168628777659071
-0.013361365758051857
-0.01367054587515694
-0.031308625237853875
-0.023529599516404275
-0.08524927025989887
0.04975011338463007
-0.0438652294989526
-0.08249958656462762
0.04062127610906281
-0.0032161008212788856
0.016521160268897203
-0.004924225763950123
-0.028507279996512896
-0.10540411267023307
-0.030390816864698467
-0.026003936028120296
0.027279720206253178
-0.009869574566791023
-0.056627897308436516
0.04275754663854262
0.003201836696668138
0.02074219474222244
6.205724657355046e-05
0.035415420722055106
-0.0013702297620057453
0.02928203056885344
0.03781751977522012
-0.026318372282026693
0.1571037603454912
0.055307077179704615
-0.047140832613351134
0.01172451184540705
-0.07915821942662041
-0.006387610798916092
0.08282100566152366
0.05638408421267779
-0.027124577604051032
0.0659845935475829
0.035656956858432905
0.02428385414285382
0.004399353613344246
0.006921542837412292
0.011042246518749334
0.06595453029520744
0.009160507057112195
-0.0008901895272380513
0.0036929371307071455
0.003051472767888916
0.03978091160383059
0.05028292351095244
-0.08466762900048339
-0.02362673989780021
0.06815507032467054
-0.005602668774946679
0.011977395496305217
0.09377586221641855
-0.05380830967835858
-0.006592452317934871
0.024253211740868252
-0.00555594531235446
0.029965097994729375
-0.05185720521014473
-0.06711058982412552
-0.09932030485185371
0.06385843968101962
0.0315610255439347
-0.034648174263534726
-0.011187163210392398
-0.009639978712186852
0.06582803633288319
0.0029358970084834473
0.023599112953145693
-0.030513567915556844
-0.005225302893408469
0.033738135243743146
0.023834391045316476
-0.020167978157103993
0.10406358094714947
-0.04591691941474075
-0.006016586007986283
-0.10895447507586001
0.009795520622178568
0.05392728165224461
0.06282102037019777
-0.06010745444437792
0.030475241341594978
0.03331253555750277
-0.0689649949991407
-0.04066830917818645
0.011187216592495544
0.04859179472510718
0.04952131849654029
0.005367055900570694
0.011205312114863173
-0.007328470652397297
0.03228333217516577
0.002314421426838042
-0.06767741463893363
0.056928310354366865
0.023703970088669143
0.0274928998386054
0.08225545727124445
-0.08393776668089314
0.016284516536223818
0.03457843508839002
0.06643867848828665
-0.0692725292292676
-0.03986337836712412
0.14422867508075066
0.10929819387201958
-0.009769929956682894
0.11354388853829044
-0.02356885699077509
0.004886744502819435
-0.06534563852880193
-0.05982881716280406
-0.041899266213947885
-0.04994009075648295
-0.03505472589157059
0.05138806391371951
0.013848868030074984
0.0837686608175616
-0.006561240357883968
-0.014648070120030188
0.0635172355062848
-0.01808438744884846
-0.007642027012373616
0.046241546151641284
0.06175610512308702
-0.06608922155023637
-0.021991930552436117
0.05788293306495153
0.006061805446503359
-0.01834510813532118
0.0339330662923673
-0.06269866767077735
-0.00822041972227453
-0.01743536747958903
-0.06127262855591357
-0.018840915181154105
-0.015929620935952633
0.05906814323817342
-0.02964667994612806
-0.07903356115410674
-0.015539372591372853
0.0004252810816572225
0.02828499042236562
-0.04691934008436633
0.011594000435128558
0.06639253202839036
-0.03662872938870297
-0.004679318199154166
0.11161688537348723
-0.039223336265920374
0.029889148300883458
0.01483093018296815
-0.0032565578027785366
0.031220990603457538
0.10840920039936051
-0.07691525508114036
0.007384385980417791
-0.056638772146177865
-0.016076354189748333
-0.06154944516682257
0.021822253281437668
0.0346764575526645
-0.019784891400012876
0.05085420736038652
-0.020574171415312946
-0.051494300121000716
0.08542844728610514
0.06351436615528225
-0.004721930436811814
0.010483573866916385
-0.030063245402245364
-0.030051906670778752
0.059802685221358315
0.005561185444943349
0.07748174195161064
0.0016790995034114732
0.09504498621847979
0.36105269849944277
1.0041100334388389
0.48076819371061086
0.13929438911289876
-0.11786575056267695
0.07700429322767449
0.049233636919181284
0.004875682361800522
-0.07887934501650024
-0.1153942111485991
0.013368280357975541
0.05135704503365355
0.007670795131248406
0.05328929190735518
0.07410998148118546
-0.006258605307434578
0.07915447899808979
-0.09793496431606812
0.07353428236434024
-0.06232368017631891
-0.06778177629962262
0.0003338900760986762
0.04913864616675981
-0.015718814671200402
0.11031877750083373
-0.08430264343539273
-0.011668043950937325
-0.05193338484025587
0.02046231736038535
0.08911143163033619
0.04707605311523433
0.09090993325187069
0.05054468633728824
-0.04014198808448946
-0.011468705815751459
-0.05146936923026846
0.09987472415840408
0.023105880329020792
0.04430036530116154
-0.048368509295929445
0.03475386267900369
-0.0014975915140249723
-0.023136771603840645
-0.0028501174238819826
-0.0038386036246317555
-0.03625671114814257
0.008624404376454363
0.08359274235193763
-0.04006659395373932
-0.011320155842056687
0.02341238076919412
0.016620566565436045
-0.0623928421078393
-0.006545260339697466
-0.021851388922275762
0.01777644055830093
-0.058967759445848415
-0.024121240468838734
0.0670597191385439
-0.0026455841409830055
-0.01737960998366941
0.10448863819998733
-0.02371400405144458
0.045316973273759074
-0.11817074646942034
-0.03581652368066156
-0.007757225534621103
0.03836196267834172
0.05735144388774768
0.023078236559942768
0.07441284225341759
-0.045711226324774694
0.026556776729655715
0.031080867342611476
-0.0015063961166212755
-0.024460187040719793
0.013551924187191148
-0.05316765613741756
-0.04617601365016082
-0.0634860082130305
0.004326039726047256
0.035050091100422245
-0.02919384363678769
0.01398602854334708
-0.0038108673451151725
-0.09769246912204577
-0.047407107912438906
-0.05334428215797148
0.09363274677016986
0.07176235354183845
0.12342181642185478
-0.04215731787437102
-0.06294256826427899
0.029192224035268683
0.01531354112221946
-0.10266443005769173
0.02305458882750344
0.0034772951758406767
0.08160553049121601
0.008212659398021219
0.04348168214777127
-0.0005375561625800811
-0.001948143382939045
0.013107165760461094
-0.006383345740948317
0.037516599964740334
-0.03626459170209214
0.02664190610620167
-0.03154990248150404
0.030020004931244376
0.02826003241754992
-0.03070851779466608
0.009052359366164093
0.02256187954992519
0.028394397655129824
-0.05764305863927793
0.0469826141601373
-0.006704675184508179
0.004770571586699662
-0.04535000261399345
0.011246841892149374
0.047852136137387466
-0.06034456783745721
-0.02551983201227266
-0.05888779721483137
0.038144581601418884
0.02763235018043499
-0.08022676540389567
0.06987736753230182
0.05132880737221664
-0.02329632068732866
-0.015731564440577665
0.026113266838511773
-0.027658387669761916
-0.02200629675694698
0.02560671466922478
-0.041195964693361495
-0.057566871558233194
-0.06740484021591778
0.0621794415408934
0.0856251198940251
-0.01004276645154912
0.08187548714539457
-0.09513980477993704
-0.11669826819235592
-0.09738401024442364
-0.05027385182163871
-0.06953573808276722
0.10229426152125483
0.008563644950706667
0.08752179562245842
0.07625622069838235
-0.06340360616141683
0.05403156126009885
-0.02009274153324782
0.061977941739858114
0.00532180344913537
0.1143189334882506
0.09830349422008573
-0.033118950361534664
-0.011364792314333735
0.034816412258891295
0.029127153451090765
0.026669942374412104
0.0879000491754407
-0.0019059917596886554
-0.0419977603020385
-0.13521512880007952
-0.047901609716198425
0.04261035934946734
-0.07123308497086996
0.0007178646088929264
0.06295568136492855
-0.04073877729893595
0.0048272537459301745
0.013409929290545736
-0.00844037811908081
-0.06543463393446101
-0.06540577141692548
-0.015901859914465348
-0.138654924388585
-0.08290381805911531
-0.06944377533919426
-0.06581680597887041
-0.029592349734019936
0.04619132217658234
-0.03771916418647953
0.0006709344918931992
0.0003721928492915997
-0.03937008168788607
-0.01073298630616729
0.01593305737236654
0.05983358881369408
0.030675728240142353
-0.0016268769327219754
-0.026213884203160284
-0.013176415697510331
-0.005870350958526248
0.02745994685437876
-1.5819421148380047e-05
0.04754205207260215
0.09731708632927291
-0.009624968921161778
-0.021711375226114958
0.005309260477659332
0.0484230451637731
-0.021711967941815232
0.011778666117723657
0.04437474168786934
-0.02142314102289343
0.1460066182341347
0.5316689965402427
0.9773360489208001
0.48284255018803884
0.04397109198973919
0.028419996038205022
0.0365173512296985
-0.004455467187596643
0.054959828074577166
-0.041709463928198694
0.00969633116489517
-0.026428326690921308
-0.004421700442267712
0.01102438040228923
-0.017557617453889753
0.08087190242593634
0.05552683211384862
-0.028330102166664935
0.00777357687087802
0.040897001494122696
0.007333736202778884
-0.092325874509685
0.058982837998507315
0.1200078645437359
0.029471459480588914
-0.050199494572941185
0.060141767992821095
-0.030091839829260322
-0.012455564705829088
-0.030378107020552065
0.004199287243185134
0.01634341277724905
-0.051053911118682106
0.047888871970762914
0.021730337466408626
-0.022730252391385205
-0.04663510367399389
0.04878446708143913
0.04978067909333076
-0.012654610659704073
0.09431727788965373
-0.011559548828232175
-0.0019214308539934309
-0.06381378161208597
-0.023413038269379793
-0.004427683540636053
0.016157800136284674
-0.06810655107365415
-0.0014108052109480876
-0.002508485153039827
0.048102302962223814
-0.0038215672850140147
-0.049125470781750426
-0.03622561171448834
0.015032660636746395
-0.07815169159544959
0.04873666696142571
0.08510032286188375
-0.00977010611383536
-0.10337800341191893
0.04560032095442831
-0.02329019297057272
0.021263266843651214
-0.0069343575948635355
0.01281053167006773
-0.049568754181862996
0.04544004682827135
-0.06965940216276434
0.011788435898783547
-0.033258862046729114
-0.02823008020286103
0.05752945806848464
-0.06644332301029933
-0.073753748872417
-0.033419665197959796
0.06283039306545253
0.03177756678137072
-0.006938194285995127
0.07330632065071116
0.018250267546752352
0.012940601430355107
-0.022547601828558632
0.008282371142130684
0.0010390193466388435
0.07270299763154849
-0.04208826614765689
-0.06947134220812012
0.03890933036826115
-0.04609251700061063
-0.03298740103535451
0.02355092668580315
-0.01091019252213063
-0.1034293148266571
0.004979794816389774
0.03530679814065723
0.01582559580641582
-0.014988369127823756
-0.05510984822687699
0.053559109030374114
-0.006996768084097467
0.05423241534128747
-0.04874340841821531
-0.049070370170673575
-0.018245001404484238
0.04092523093624257
0.02337786045687536
-0.05085650949832171
-0.04301886806620805
-0.0573234451769885
0.08830304187705855
0.038225429439396746
-0.013902325374704497
-0.032031822331421315
-0.015163206707770577
-0.0026337376206687427
0.022612513169069808
0.0024570566536783
0.06964540129916853
0.08182022076074212
0.09139131375461144
0.07213733536699367
0.022216014411449443
0.016043789073552722
-0.019121532840170763
0.0782245149558474
0.07813434425330226
0.05496156483897091
0.0356982234859134
-0.019698892011235977
0.05740868708417423
0.04189501192803908
0.037337043410257856
0.060699210101801716
-0.07274347639122768
0.004560202939675284
0.035216803330901894
0.039340977570178036
-0.039665607935169385
0.006131113676107022
0.02553257554599206
-0.030166722012543664
-0.016127707457155787
-0.012326264613129275
0.058848513917712064
-0.0009294541084037971
0.04503002850089377
0.001375703254220337
0.016822328558959723
0.0025060130236227093
0.09939989175016062
0.03210487863204149
0.037114070009666184
-0.034287688452743076
0.06416933364471823
-0.011111619641411632
-0.0009818850012865445
-0.013227896357807129
-0.06839053516049155
-0.02490992074915144
0.06129863125635934
-0.020454176770192654
0.0292802970332178
-0.02689304325308889
-0.016686675202833283
0.06984554131677267
-0.0183283569491707
0.04854257945098445
0.13277829733882596
-0.008237629296425263
-0.035790832270081244
-0.057311111420202523
0.05173472568524671
-0.015215698501300041
-0.06507499473904935
-0.04488744074700083
0.043462733538900185
0.0069269376199009546
0.05164208031930885
-0.04979314734173062
0.026475254908828835
-0.01040362436757606
0.029053269886109647
0.002480514764953938
0.04579482109558543
0.04362065421541367
0.0663940280705868
-0.05867826546951831
-0.042336692300919965
0.018590610190153498
0.07824938508563252
0.10485995397292527
-0.02687778067083565
-0.016748965222215282
-0.01801194899887885
-0.13488443635909134
0.1114719139545024
-0.0031741033241514563
-0.007719470694271058
-0.0499311049191688
0.023084512600063847
-0.045109431753981466
-0.011810830669537569
-0.009158604760534487
-0.02188826473957477
-0.03795945750500767
0.07721412303386395
0.021668311645422475
-0.022131509593976386
-0.05343436900883386
-0.07690245186164624
-0.07409423697320222
0.10646097918630287
-0.007134283866590866
-0.011347058805570806
-0.03889924455910434
0.00809062291665731
0.05062310894056854
0.5045407280585626
1.0518208093485322
0.5201311239602957
0.1835007944987238
0.0431620768841515
-0.00045496172543522614
0.06713701637156126
-0.007399688835928517
0.03072543113242416
0.04396125268735217
0.08084647322687746
0.022044073099012962
0.012061045650577256
-0.07034686953766471
-0.05764590096444591
-0.008944498001498612
0.08386993254046944
-0.02409950365878215
0.05986974615597075
-0.07794669453298192
-0.054270226033787186
0.006120378022979981
-0.0535852237504946
-0.04117358810987623
-0.0294014124675855
-0.0584581210162806
-0.02037294869602759
0.0357990190712708
-0.02567553249374458
0.08904638427963418
0.07036616479588827
0.007867851368818117
0.04127911930757466
0.0018911749878391061
-0.06102082890082144
-0.040424522170520436
0.06959471248177429
-0.030786929601590258
-0.05203585128250589
0.05334864951428386
-0.0387536366418561
0.0710375921565258
-0.021187888672871996
0.002753885359375827
0.02677780087028341
0.007805553245275392
0.03438748540492546
-0.003331417054718796
0.08718178171694439
-0.05119880089372673
-0.01829624280809489
-0.04120118759773733
-0.05303051855980065
-0.024603741256493367
0.04852434404431677
-0.002949450604985257
-0.0028444452870999212
-0.03186213544838746
0.060803308984549824
0.005820101693857451
-0.05132437927002695
-0.0030777233930930105
-0.026452850086980673
-0.047360894776137634
0.029288701672536267
-0.03711337741352715
0.08478768260779534
-0.03520899122080049
-0.01951137795489493
-0.0790672855948003
0.08641981715152776
0.11556750674859778
-0.03394126284016446
-0.03486503306382519
-0.055626398555069435
-0.043260941763000535
-0.02753649753352798
0.047918024010648416
-0.03625471648097179
-0.05825916533270913
-0.0017415931791482453
-0.05402383898222612
-0.030482123953210573
-0.07313067207290558
-0.012889255261289366
0.025754073332381097
-0.1149263214236449
-0.021291080105974806
-0.02675007150076837
-0.006194378948122397
-0.01817240251899148
0.09344352983435268
0.05202558353662309
-0.04569723342741874
0.026741801773621426
0.004431585222178626
0.002267748087659813
0.004779576494293384
-0.04912287439881034
0.011993559439862748
0.020599704557604025
0.09313079558335262
0.017519261743607645
0.1019510249147245
0.01433568736499673
-0.12135494887230108
-0.07470502466694239
0.05703121183277046
-0.02910931311661228
-0.05448791177616045
0.0011357216269855302
0.044319860003902097
0.0401002913446473
0.021090389063350215
-0.0291011563428969
0.03396398857697311
-0.04466170771676385
-0.06077665687615041
0.013061270366858413
0.053138126386121455
0.013663004694544562
-0.051897362058724195
0.05865377526266372
0.01760774523183853
-0.07787895635373027
0.09685547692683948
0.033218753207667505
-0.019487566229174615
-0.009761290742934149
-0.01100007551555441
0.044915222484010996
-0.03975606328385011
-0.04990899438997529
0.001182249958194774
0.06010248691508544
-0.05901483633804212
-0.03225491309192941
-0.052500629507273223
0.0022656814000051274
0.01883297266776332
-0.007061075248534761
0.009956750735747831
-0.03122405324972054
-0.013323053472284014
0.12415176778706938
0.06020727412264707
-0.003200707978723192
-0.002975265780689236
-0.008899976362932696
-0.038875280937701484
0.09932703107606028
-0.057262982467062656
0.03869138800509308
0.053550155567615304
-0.023531819366829913
0.016256382591381534
0.12872239949656444
-0.014044023118790086
-0.014767668552482944
0.056448893462966124
0.08982711891669416
-0.029594511001210536
-0.08677719225588648
0.014956785829658818
-0.052836559329232785
0.008485874350398498
0.003241240988543498
0.036083274662125735
-0.06820053594218686
0.013216180777695317
-0.01117130145298568
0.047690884277462015
-0.011820318803513264
0.04767977479357458
-0.0817963790542453
0.024925956799180058
0.03554588000211422
-0.007756592808209596
-0.024321922076887142
-0.04240533166002116
0.0356123933951129
-0.10920949779537747
-0.038132074914112246
-0.00812693313899322
0.010486364690316278
-0.08202527665392183
-0.03548328166207043
0.04195808500672372
0.11372192177970425
0.01929387306897147
-0.00421442397341744
-0.01587930358641822
-0.00468318667171319
0.1268035466522993
0.521155666104385
0.9063473310791967
0.5162209616646649
0.01841594806089257
0.019806318725549193
-0.050480913280894206
-0.05015300120621685
-0.07065941535671223
-0.10079759314285262
0.017419224471658553
0.03138078190668083
-0.02956834568010996
0.04128337330315557
-0.0019280937990693533
0.051502259004488064
-0.010334747592954835
-0.12472197684760807
0.07762867367944608
-0.0006634795016387853
0.0035236880896395957
-0.02059380155870251
-0.013986394455800022
0.02818926116041135
-0.003977107344377366
-0.07128462113960658
-0.021304020098910664
-0.09956445206213177
0.02574639594234567
0.010805627226260812
0.02641962425166477
-0.06337885814442727
-0.010586152010390384
-0.024768653736515406
0.01646598127342573
-0.07381214698816808
0.1578866765429348
-0.10482287410856078
-0.05096821399051064
-0.03372906391020291
-0.019586718157596703
0.09599701712081644
0.023397064104523444
0.04829738498111171
0.027575280077609246
-0.019761291030695266
0.1252881326203516
0.047061489287381436
-0.056584246060111226
0.025136877663771037
-0.0047590496199188745
-0.08061494346726913
-0.030313725156158933
-0.031739785676225554
0.019260015663000594
-0.03829279484604827
-0.0176506949676477
-0.03289810914706806
-0.04078496501904518
-0.024739757610452842
0.017439046137044566
-0.019099368521708366
0.03581155322511994
-0.03241272761727008
0.011562240115152925
-0.025998422849566733
-0.08440469975484416
-0.02435839270055286
0.010609921858705046
0.04406655728223054
-0.0449259118957597
0.08708162758821085
-0.044651292951994624
0.026856197600480847
0.004894009113335124
0.014487689060346878
-0.01466308246763831
0.0430818855373029
0.03395768154054556
-0.021466616711746413
0.007696503197489152
0.07716073829401952
-0.0888867181479282
0.0006355096622385422
0.013801514349639409
0.07400263433978237
-0.027815215378823255
-0.028059917326958013
-0.016876978339197095
-0.00029785821888688585
0.07876898415706426
-0.04462737921982999
-0.009624188362710999
0.05919885166257354
0.00798157720085377
-0.035107073294939256
0.07589672248734629
0.030044585546466652
8.221327884834598e-05
-0.033093611121033185
-0.015565615154081728
-0.032671205890372694
-0.009313668161314376
0.014382382268351084
-0.05303413511990939
-0.025416894819919086
-0.00873823432256846
0.016186035722470734
0.05897514506904346
0.041223538268927815
-0.017359104017094586
0.0015405105961438497
0.03512581845300199
-0.010131624423600789
-0.00892964249272525
-0.003506415446681402
-0.0223474265792502
-0.017995213803236567
0.05904116745279769
0.006494578281947117
-0.0023375244800141197
-0.03366872912592739
-0.004042578773339897
-0.03674661707255974
0.028589094349674667
-0.10477831052087148
-0.06932444388148133
-0.02197694784927963
-0.13948761125669557
-0.07518821183974023
0.042962691871822146
0.05279543602019491
0.015707371893238103
-0.055287165976573786
0.031310728297598095
0.1363189903267315
0.03279637464005949
-0.053958718049207044
0.016011587642510185
0.009185569017957775
0.01303044378035413
-0.01599099420779188
-0.06022446072758453
-0.08571056932397729
0.002388996997798542
-0.01254531607869931
-0.012072807196254356
-0.06117503793311581
0.1014223490895275
0.00039839502064837684
0.03873161975758106
-0.03702278971268507
-0.04540594709094756
-0.04702888958305561
-0.011137105303185672
-0.005667823634137506
-0.04584755125055785
0.08415054323294721
-0.018884335652151328
0.07892797009295571
-0.07941275285578595
0.033246850777744995
0.03263871932114051
-0.025219430727189823
0.0006033152779451159
0.015139595216849686
-0.0344746431444194
0.10072130787007579
-0.010886820132869667
0.00039585839787259865
-0.06128006556231635
0.021293848596773593
-0.05068784160623338
0.07033888080054115
0.017863400111597882
-0.06428255791613036
0.05425721744494312
0.060292325485676215
0.031599001782368956
0.05424581470098906
0.027887752831786895
-0.01236745947431205
0.0010300570011333866
-0.006465133970762826
-0.018155272476075453
-0.022801385598052046
0.019025686046243783
-0.0054811843357207984
0.04203925367850216
0.009852637702486079
0.02682549816159125
0.08380360740844682
-0.004599282743418709
0.05328639594891345
-0.012386380262747968
-0.04442778804543761
-0.000900303885553113
0.030254759198184367
0.048921765826446195
-0.0782928183358041
0.02019363046762991
0.023627184263254518
-0.05372694389231253
0.08376260135972367
0.01163989043388322
0.07533109810515626
0.041355154196835345
-0.03263616009047
-0.04915313095357802
0.009105183733602574
0.0394252224368404
-0.03632816341365077
0.004847400305428327
0.02767460244268445
0.4991317171796955
0.9911845273988743
0.5256166615680238
0.06633388033850166
0.046220041068000664
0.027191464481593375
0.00795803456757152
0.05924731369616307
0.040159681143999496
-0.026196987434786698
-0.004913803904898921
0.003066784026337473
0.015155417772709177
0.0015539023479685275
-0.05780893587507421
0.04252405419062647
0.07301192489506274
-0.01845547078898646
0.04538795997746134
-0.013228665795751616
0.0392506793897865
-0.025239164559985122
-0.0945281817852754
-0.1168877918498234
0.1054580080489985
0.002417285597519495
0.02414277023417888
-0.03973733985192162
-0.08324332986797504
0.01669318404866246
-0.016357191095104827
-0.015340756290442379
-0.017880724855864352
0.03578581908837521
-0.016294706724049614
-0.011001890602000118
0.1135992533492109
0.01887525505372993
0.011121860797325647
0.008686229633878438
-0.013106564543353266
0.01676666438390036
-0.015657891124344386
0.033678012408487445
0.03781379982908642
0.08514290891232709
-0.05160780887242089
-0.04634809432373518
-0.06754953354306183
0.002538590670716945
-0.00920645790112262
-0.07589474600465225
0.02472372266067606
-0.00018193940805030605
0.0016277442893264844
-0.017459636125550543
0.015303486590315864
-0.033548659092798874
-0.06217180392278548
0.07940131144926947
-0.02745763558539734
0.08749814069118134
0.06288628949508761
0.06787502893233492
-0.07177696640979851
0.12709988275949072
-0.05003980978177988
0.11313214327750805
-0.03295767376804427
-0.040045045218342505
-0.08711587270743128
-0.049649628554257946
0.04996808739471824
-0.020894795161895074
-0.07483755781736119
0.08240930170199358
0.03073020946524424
-0.05258593276353947
0.007399562183022889
0.019422314019413564
0.024131733154060055
-0.010937895935945912
-0.1363735468431048
0.022071325381776485
0.05024912066162998
0.0033299880479922177
-0.06586045612934262
-0.041068102875558544
0.02111062144738263
0.04977926828696764
0.00251267967145675
-0.011758871131806995
0.015952679870840165
0.04869564101128295
0.013308690212007446
-0.03082076996895319
0.0567697034163726
0.019890040662894168
-0.03473088298118679
-0.017328408483722104
-0.0003801898835534585
0.05708888833531161
0.09286892280768275
-0.11038658555746368
0.05863668923435529
0.08598349655318294
-0.004261212820381207
-0.01928148192841672
0.055595741713862334
-0.007569178839274076
-0.009446459526489738
0.09105900521334875
-0.04185831321806388
-0.0402687987896277
-0.0774951933880649
0.005215319716602169
0.044165912201027946
0.00011738814182158481
-0.04084622310059227
0.04649793320212572
0.07155282927605254
0.04449013116170147
0.03027183099878913
0.04862815541535473
-0.037198026887393425
0.015475130405933521
-0.060190888444786206
-0.037627830181235666
-0.0869740898656905
0.03739162194468371
0.00915024598054825
-0.04380001001272594
-0.026128693651663676
-0.007001206215881704
-0.009280370931560374
0.007666545389461783
0.03008797470357415
0.009306092112677317
-0.049046832767112886
-0.006733867797546656
-0.15299049292952263
-0.020940785498721505
0.0663892505540611
0.050470977036146995
0.056311046547775134
0.03514100262527872
-0.01817069612317931
0.08831826776828308
0.007633173898655386
-0.032212021935355155
0.00774703229827351
0.07403544812667846
-0.019257682602407317
-0.0016819838836620888
0.047555659734182604
0.0742098757664471
-0.023631901410630027
-0.04944605153361936
-0.05961768061104469
0.06643830034037025
0.019881564385339733
0.06014500721159177
-0.0046527916588373144
0.005474737642412925
-0.0030792240338116637
0.040156456441580425
-0.03535865117796629
0.13433331974404716
0.04791139065347374
0.1014302180933468
0.002541260530556808
0.000747854355169445
-0.00621781226247056
-0.023165351430785238
-0.007682160787580628
0.0008383332873785642
-0.11681350982960544
0.07531271245999727
0.0075563293011572975
-0.07585770820906027
-0.02721053813743541
0.00963957031094289
-0.018134318705527588
-0.04046488461131184
0.05461988040716201
0.14472053754905342
0.04598797428574736
0.10442859765036283
-0.024864083669177847
0.04247787755925714
0.016610190699670676
-0.09262060518964076
0.10199516317367337
-0.028312229567024436
0.05323727048734799
0.06156149258491309
0.036924438789929064
0.04594427858715873
-0.016228978235625094
-0.005245328240641835
0.018897382038425906
0.043633065792601844
-0.014141566968976966
0.012878808715439605
-0.012354058256178907
0.11898498416210507
0.48779332534068665
1.0475172442512477
0.5203809869997862
0.11809691936278216
0.0633649094559341
-0.02595942029998813
0.023942420810341272
0.020595930528292263
0.07607976706790794
-0.006542047758190634
-0.09569841421280567
0.027250703138125318
-0.06197363210306546
-0.021012461872060836
-0.0042806374206464685
-0.027202408395500907
0.06191607358413242
0.04163028828837068
0.039613747435682516
-0.0860241978354494
-0.06514706128343516
-0.054406643647284536
0.015538753102716268
0.043637121959958475
-0.052730930044320036
0.008041927597355968
-0.037145626795945574
-0.03836573220261774
-0.01298941141041734
0.01445819026442799
0.055495234840584155
0.011657515159073907
-0.019874772736106976
0.007116897334477207
0.050864961525392265
-0.1101684696707245
-0.055156441434962955
-0.028250469559357762
-0.05830671668228191
0.08690537213586351
0.02468528731803013
0.07650611701797251
-0.011989280158165895
-0.0015104571376893868
-0.04669541988832739
-0.039994183505907034
0.0041731047937160915
0.015288285509742575
0.026643972568671348
0.0036487036612114342
0.03288537469508301
0.08231715872039187
0.01067403437177446
-0.019778525191564478
0.021658444631328294
-0.061537520395571914
0.008705250781625885
-0.05787384732645201
0.0771498120601999
-0.011585346208208142
0.013963522895796885
0.010805057587459308
-0.08103070044639533
-0.01844151781103489
-0.03434549418914913
-0.039414263932716034
-0.023266553982516352
-0.05189425826720843
-0.06564057635705493
-0.0167217679501593
0.016137534597122354
-0.0410678009071854
0.016729718654459904
0.009565486318306095
-0.07683438436302185
0.03787081425712354
0.044860879025050565
-0.08636931975941695
-0.09906686452880849
0.0033514561393997184
0.08940386495696186
0.058744648748294936
0.01969236406440894
-0.026810100713948466
0.02337493580915342
0.02378681654967128
-0.12929875751348588
0.0197498833634388
0.08718435540662534
0.047246392376891405
0.0536774743757068
-0.016387126486389673
0.006473115553709424
0.10053456486203763
0.06393075214751696
-0.025956659593371362
0.021274428575377133
-0.01387352377662971
-0.04980345002221409
-0.02753457634151181
-0.005772622567842505
0.0676562167279905
-0.11554270210686826
-0.009551095163963052
-0.027457683503579022
-0.06202030502658018
0.03839923796966216
0.053243446293487776
0.06821842183128167
0.048993503561356976
-0.015650017013968547
0.028771937885294807
0.004264079587764663
-0.04210147037581833
-0.03210339975679078
-0.05914651081261355
-0.05556621035760193
-0.07968382809280013
0.028714327174218214
-0.04128618157045267
-0.03159954808132907
-0.03274841629525512
-0.021474343475200778
-0.0711027863758638
-0.07165380549799882
0.07407223772686787
-0.07495536707300514
-0.045900965968346
-0.03022757064644334
0.04364418083624308
-0.019441700727426323
0.016081498344977564
-0.03664011713385969
-0.00015036982587185498
-0.025646447980265975
0.025264979063552434
-0.023222980850784638
-0.007416036063037619
0.0004025560553735733
0.07609849857955286
0.0393564708870777
-0.00014806673936090898
0.009756275311152278
-0.022481152757530282
0.04637821379842851
0.055388562153318215
-0.05070318334559244
-0.01694497140422646
0.038492326836105116
-0.01563673372398684
0.09534348934401132
-0.0041712775159387675
0.014470653089338224
0.11471727914116708
0.053739922708267523
0.037117714808095656
-0.04835283987105571
-0.01121045500345066
0.01017273243870287
-0.014922860945184583
-0.014801242720550157
-0.01390857461369802
-0.07670800714056877
0.010182661190182662
-0.021884205853294023
-0.09382468117904702
-0.04867385562149052
-0.04584280331774894
-0.016874765368433114
0.0048756579272791895
0.042347285788840866
0.028457417839479617
0.07343325948474681
-0.0589643951689384
-0.07240186474822681
-0.008696312686032047
0.1500937907648275
0.06360933892646324
-0.018757359437320778
-0.004036645952084382
0.013541397459359672
0.032562546969961005
-0.040067087522215855
0.0022290282548431193
0.04956143901052946
0.004329544115198001
0.04887053933822614
-0.031915242703569636
-0.01923238484864693
-0.11556578453143083
-0.008758762359442751
-0.09901054589988385
0.03779586709877177
-0.061939105715074785
-0.00025087222113412427
0.012959148647247896
0.024807150786593162
0.022144673982173506
0.026912107174203916
-0.009291145235849247
0.048612358898242225
0.02539651016596981
-0.0070024193361715075
-0.05633611731715611
0.04961779906851841
0.008016065302737404
0.01703788104405416
-0.04875704163093223
0.07076827818526339
0.0632338848171143
0.03462217653147588
-0.03492171976628124
-0.03372956852349265
-0.04642655096629538
-0.015815019879407803
0.04311773865498175
-0.05419713918587646
0.011176870356481974
-0.012195099727397902
0.1045135420883663
0.4575441641034593
1.0171779169812785
0.5385176105507999
0.19407377280400634
0.029847681286328837
-0.0041059423935667855
0.07848480535372346
-0.06328104620307605
0.048163014968686524
-0.12010982325644537
-0.10490361231504944
0.09558409514933103
0.06335082719371618
-0.07838749000364287
0.012875438531674211
0.019521006842777352
-0.049547755873338484
0.018373355034884954
-0.09350706595786859
-0.029891306721919836
0.030206939587216722
0.061202025137078446
0.06649673986209646
0.09107282509897656
0.03518712286198924
-0.09447598223493207
-0.04326577869933572
0.0008690045526946784
0.03329912460945023
0.08197653316736894
0.05856008301987356
-0.05126392917319268
-0.01943602449815488
0.0037744404827081235
-0.007458211815862062
0.13739311105276794
0.07841843959870465
-0.04283286520617546
-0.03292698163173538
-0.019723942443013592
-0.023786224412160602
-0.040659011173028385
-0.02582557592907489
0.0008177883675717072
-0.011583681009899793
0.08745891424407232
-0.0977652350737263
0.03167221989198354
-0.03948301918373331
0.021595354756626023
-0.04517519018475437
0.026257331242201518
-0.016001587956645205
0.032968723138360384
0.03252183159676512
0.03991801331229944
-0.05145380990549756
-0.04153443015283502
0.0779766360580279
0.03441143198570356
-0.016977741438399203
0.007580406234469088
0.03165704221585009
0.03896594811864053
-0.0160596893225097
-0.06353577243633995
0.13717214676368947
-0.04997932365706507
0.04488007579519171
-0.009922553381727641
-0.06847677451756704
-0.0467361958257561
0.031887468219763467
0.1233145738300064
0.0014817904455866407
-0.03464777260769334
-0.05340093953870254
0.01570707880262628
0.012790787275566007
0.03449900419274419
0.1214198691850303
-0.017928991671697047
-0.0006326519261264209
0.044765527084851965
-0.08964309470819351
0.03834151113544762
0.07903946505677538
0.006200015061453727
0.0289462019174217
0.028442194279335826
0.0022455741287317975
0.0029631005565265243
-0.0005420425240167912
-0.008103184722286667
0.06695772082517996
0.029196228938145642
-0.019361504029717657
0.0014682161531065993
-0.0710796728335111
-0.007870588691402417
-0.03231155775062035
-0.05287893154493767
0.06180883285725017
-0.009019355667123726
-0.04705539940184516
-0.043833445574035436
0.04139138331545256
0.019755460981648428
0.017276575821402258
-0.008873539580091674
0.0054940547064041105
-0.006194614752441319
-0.006770126940353987
-0.10829661320549798
0.04630605979942914
-0.07230748708328842
-0.06316533014915579
-0.013901032391094121
-0.03431278606831771
-0.01218674617690994
-0.07846755753194141
0.004576279498074833
-0.016979136842994742
-0.008241208781993288
-0.0022528753974734774
0.0523492897337886
0.021010214670099205
-0.10733770351389008
0.013206050225500516
-0.06097279397226888
0.04303762801278489
0.02550549375627489
-0.05376254698010169
-0.027022972822723947
-0.02627904786267939
-0.0023522996006043245
0.010274965974155746
0.02242112979793515
-0.03447099604930679
0.01637622390360209
0.0977827801720897
0.007741857405535889
-0.08592832343414658
-0.004112894753571514
0.06385205259219155
0.05316353811126974
-0.03848117683327032
0.09211959289302322
0.029117692695807135
0.028859736586004166
0.030843742780668287
0.027622007207402793
0.05806229469898319
0.06738191407804255
-0.06253551633608638
0.08384751995540941
-0.07350810673293683
0.023483912186098365
-0.018523122615389676
0.0024923517197587715
0.031201523380371906
0.04365522432062884
-0.06665799892661518
0.037744103060620426
0.10112552549072565
0.01775684770447344
-0.013669879237790217
-0.04673558616814919
-0.04603143150586967
0.06805480165460191
-0.018421937726676507
0.05022659029768387
0.042381893941810064
0.005456584275426682
-0.0002543320532774857
0.005638940529851008
0.049931532052494426
0.011849755947045175
-0.12139603441466087
0.01010395761502345
-0.044576063724458104
0.0738092183055487
-0.052641491289833614
0.03421744300073797
-0.01762219495208934
0.031610981752268036
-0.010844094264077649
0.009686181876776454
-0.06778262124610626
-0.002917219312112562
0.08419896852686136
0.05591214804039643
-0.01023347802608703
0.1577652183419621
0.42823866077976613
1.071716520505566
0.5802444625402129
0.06512176319183488
-0.07505273028796089
-0.03607315845653058
0.03215691259038136
-0.031023523767431796
-0.009560906402388469
-0.04515464361092308
-0.01119294155688788
-0.05698842476255714
0.02093336002990131
0.012948219234371845
-0.05156910268122457
-0.00894235867676193
0.02353599707887901
0.04554085338214128
-0.004824284406562477
0.01644649296698704
0.06665825307729771
0.019580512536367566
0.02830620349025801
-0.007626549201883466
-0.03759741461478966
0.04200344706480492
-0.05537049459360427
0.057917044535986874
0.054319184146379054
-0.024164087423886038
0.017998091142365023
-0.026652321171212412
-0.028214612170186972
0.06332485599512551
-0.0234609545521082
-0.04485103399200346
-0.017140641050909785
-0.02109140356255142
-0.08173953053648483
0.07120018024231432
0.036437470839221824
0.008252047712716077
-0.04031474736101133
-0.013809612291976362
0.015605564019441158
-0.018954371148245566
0.10176532180229987
-0.09907132024377435
0.015797769183277088
-0.0223096152775371
0.012306902236074124
0.048466285711722984
-0.018532273039902705
-0.06608720667271628
0.029218171499133156
0.07631986271983256
-0.10379956368969315
0.0035968088408267354
-0.02906446708970439
0.028757937396370576
0.055241099792028674
-0.028679635681376044
0.05730320549180971
-0.04093405112591849
-0.03805599663706138
-0.004951701338466016
0.0636712643563158
0.02855282115869111
-0.0010834939630569886
-0.021029031880292957
0.021421261560109456
0.010729203011035658
-0.04329371779066231
-0.004043543201675717
-0.14452465468120232
-0.04193525055624822
-0.03339799423504693
-0.03733152661229502
0.05007586191261433
-0.005079776932143579
0.08787861306517428
-0.009022288693097751
-0.07066191299703263
0.04268724123683342
-0.01627642844285931
0.062351703094299785
-0.04355863807099398
0.035216042724690956
0.07977685284215767
0.038660452603678314
-0.009309679180809403
0.03128466475898045
0.1597084514028536
-0.046882559784263006
-0.004371394051375118
-0.04794985130833807
-0.019055934755908405
0.01521275792216642
0.02739045526435519
0.05106197851560773
-0.11646022122783327
0.010572755290705498
0.022032539043371855
0.02615685647330676
0.0345600314048783
0.02368261546124574
-0.02935600009769227
-0.1157760698849423
-0.024886114530645105
0.0036492869409263393
-0.042130095012038606
-0.014207912431740105
0.006511671914245515
-0.07742421824335263
0.06861330464791851
0.09509116567432424
-0.013761434704444152
0.027437503212040082
-0.015295143315239488
-0.03498416785403164
0.015488805107552253
-0.030151257163408336
0.045908039854958685
0.03569723561231199
0.0683876554206568
0.011477628099027824
0.01348349896390533
-0.060159883941714
-0.008858963247832955
-0.060247841126395085
0.014716347600150559
-0.05797756914283419
-0.0502656845374011
-0.054723797481228034
0.040834304145842104
-0.055759988432972675
0.06606964764131053
-0.026419101053529837
-0.03162908895037987
-0.036138529754687315
0.07271830346384375
0.029595664910546955
0.020031953059955292
0.014101715528430245
-0.028705547704880003
-0.005328018009440564
-0.019861970313200493
-0.029181499268718172
0.0338514174552979
0.0318159039998704
-0.10445037721907985
-0.00029636894097975265
0.07415592487429429
-0.08176131895303237
-0.03427697510590382
-0.05396071398270237
-0.007126527026072517
-0.07889931108849627
0.010701414702208763
-0.004217012877055256
0.12657225633091387
0.001102722237041464
-0.042226922628391374
-0.11635409151354331
-0.015950259987737164
0.01947066607508678
0.052736485023051574
0.10967965065567808
-0.02385710610202676
0.012757832706142926
0.07994507512022676
0.009944144721518932
-0.006045009003981657
-0.01434951612427264
-0.041939678740279214
0.0035778397033181053
0.02436336613086843
0.028198830042560675
-0.0478916163429617
-0.0293849044377562
-0.006002425683654774
-0.09297244817096893
0.025359579983088926
-0.05503940455046559
0.05655580406611045
0.07264399124096137
-0.010916477567792961
0.07368884401470988
0.02068529126098226
-0.025002879569372097
-0.11181486507439933
-0.0036002638698326554
-0.01065814999138489
0.031183971978084313
-0.00793655260676657
-0.0029969903371346585
-0.014134035829173545
0.031583671785299604
-0.04249791149970483
0.031177039308315738
0.011613330370260536
-0.004750920953177467
0.0792291298841693
-0.043846789345353555
-0.10381956138760016
-0.011033197445077796
-0.08849124763894309
0.03918204779965735
0.06335899368517839
0.012624519140650351
0.044906535937674616
0.010438013454707752
0.019204220621253758
-0.0017086097071839818
0.11005941640101694
0.4949689544395533
1.0094201344803346
0.4523554398778684
0.06543277761322183
0.05630392413002893
0.02304331718230357
0.04187404023963318
0.010154414514142292
0.0029631282430555676
-0.03135255565094001
0.026949683604631975
0.010500174224129834
-0.0027603821737974313
-0.06700771895796692
-1.1651954619691454e-05
0.02614741175934103
0.013570234512170055
-0.017585987783361217
-0.036150403615045866
-0.046492663755219
0.05940892874266984
-0.006166318951845798
0.05106324949677959
0.08117764431426888
-0.06295861810275163
0.07587143062593343
-0.034443693231750755
0.007646332927791645
-0.09560300406759521
-0.054908735915767296
0.020571302165576955
-0.15201164912635923
-0.009159417832766454
0.03470007559173901
0.004950124187605702
0.05544711012926591
-0.020755670853014125
-0.05710968979426837
0.006603473044018118
-0.029400777365606284
-0.02983171756618118
0.016848094000083177
0.015003132349025436
-0.0774357166131848
-0.04452356437744712
0.07557862389116096
-0.01673899808209021
0.02714834107641352
-0.0036851756674347322
-0.021643348046978997
-0.0410159002289899
-0.05017488923894117
-0.023696309637789247
0.002589381424832518
-0.07210181095809318
0.04489189860953342
0.03458519246342926
-0.040294250862121905
0.026124699044209533
-0.02927384988121684
0.06808002196113451
0.07147233152227364
0.02439086797430708
0.009144087296201272
0.010506585934660277
0.03187549940221109
0.06649956914691957
-0.03492451733217456
-0.017541749601246333
0.03962497408446613
0.08459917673220932
0.08349320432800056
0.025722995705277554
-0.040074136845954796
0.022917971233236897
0.07541654045758119
0.05604193188054063
-0.0286509086767025
0.01071470067102792
0.046589149485093934
-0.028503142564203072
0.04008986991550982
0.06796582153835205
0.10715917388603069
-0.005757855927610408
-0.024947847042602556
0.08376860297534977
-0.0033616421638612577
0.0040028596361754735
0.006103100885660639
0.06603615786375272
0.04244433887596185
0.027671438512265098
-0.012007654232727087
0.001527772804739457
-0.008645679448117281
-0.03225382477790511
-0.08882571250641773
0.023720087781108505
0.04299101738006553
-0.025041340659089348
-0.031404381908388006
-0.06138048956328675
0.01683692079226558
-0.03689093696791298
-0.07359262901933862
0.015306450692978965
0.07457167642317819
0.012561916117770095
0.04457020744158993
0.04265006414033777
0.0013342913266034687
0.02611917848360859
0.029827230038253827
0.09745332826174279
0.05264181621759372
0.027779936268621432
-0.03841452325850578
0.04469504202436078
-0.011253820387072769
0.07977768589932556
-0.0027004719246083134
0.08443897377907357
0.02805307702922021
-0.033403590408532774
-0.0077038086258293635
0.015320572524172283
0.0124383832380369
-0.04258046208494656
0.02223505295139212
0.0510695775380029
-0.051212075368104265
0.01654156129202562
-0.13039156995757642
-0.010442930533214123
-0.0927236080027819
0.07799828360740227
-0.018921112936795978
0.055999058267990946
0.05257893472579355
0.058259483962053216
0.02903613673196014
0.005447606489957143
0.05011632420660589
-0.05132112031424271
0.12024394287899012
-0.003896552042524998
-0.054751937455329115
-0.017491032470430608
0.014716501613699334
-0.04655063991713326
0.023902385967298507
0.021894679167234896
0.023760900804837892
0.02119014622647235
-0.06323909011408262
-0.010991707447690227
0.020332409091645617
-0.07594648034170379
0.08334619072282345
-0.030925308320521712
-0.00685621362045017
0.0018026518584951159
-0.024030724537151528
-0.009838881584157069
-0.011900507257980909
-0.015570338220873899
-0.04777213396789251
-0.030910460225854502
-0.010882597543791877
-0.10313068387277341
-0.07324241464344482
0.10937369733848856
-0.05958251567585279
-0.015457234878583798
0.011812054382224366
-0.013563638034652853
-0.033340085733455184
0.013816094655747457
0.0391336055286735
0.0719880034611085
0.04406533249423983
0.03452005440769515
-0.017454962149132294
0.03168566606292866
0.0012079014666819393
0.011156978434670391
0.043019083431577655
0.007520172432118822
-0.00818412199879235
-0.10781891260579102
0.008171332975762937
-0.0033161203733756335
0.0635005231873588
-0.026553527910676656
0.04527561827534957
-0.10700691672106964
-0.05686201236893878
-0.03389366141841961
-0.07244979834301833
-0.06433997196373235
-0.04977620144059609
0.12585965996804288
0.5535507764937064
1.0712253945299648
0.5235181514886951
0.07376035513137423
-0.003106381232098967
0.018297675860020037
0.09336155739343721
0.02024842983377971
-0.038499847605823825
0.06071606466918478
-0.03414874665644367
0.02463716961880729
0.04621367855178317
0.048910909574852376
0.0338304676664857
0.052626916220300225
-0.012547825360642702
-0.011678389948414273
-0.023308006885237396
-0.007021103054514391
0.008882389024822487
0.008192495489861881
0.00036797413109669976
-0.014914940457993704
0.005954494856437816
0.00035130901129547124
0.03379811678693336
0.003986825274865164
-0.026767299272796908
-0.057327467642848066
0.001282984704252081
-0.05410418876707356
0.1075360439277227
0.09638110946800676
0.06190845141951157
-0.082428108864345
-0.1890155481212653
0.03960177030314136
-0.03380020890822263
0.011677739819461729
-0.0056176863647647785
-0.011634742743098288
0.015767214917018078
0.025945502500513425
0.05515552419366868
0.11099770359593873
0.08700844502130906
-0.0031407157780390773
-0.03171733511393168
-0.02607469297650457
0.029108581586088502
0.038160332308683965
0.03268526277532207
0.014482617652872657
0.007637159978998536
-0.027762452298150622
-0.06240909704063135
0.015011484660810565
0.06351321458172234
0.01475151814671298
0.024862758528585466
-0.034997041583512724
-0.08703418583828909
-0.008676275350452557
-0.012604370868365244
0.08974706597132798
0.06720291158571652
0.042075341116962546
-0.04406109684250097
-0.011616469821414574
-0.019515098754526745
-0.032050368064230096
-0.01619895779564903
-0.04185015777915695
-0.05009537004861584
0.07981260911544573
0.06876446504189038
0.004311122444572162
0.039177457038025096
-0.028844559906252787
0.023061546137847114
0.02885916537540715
-0.024423935738368742
-0.02464496439224169
-0.0013309278132994033
0.06720645225824226
-0.00616525915715415
0.04005055049393915
0.006149650607381524
-0.0041121545768989754
0.00527622991936751
0.023775455606994587
-0.008718295380811803
0.009849883263768391
-0.039170743537608056
0.006793957340917336
-0.005121584417526789
-0.030473252158769976
-0.004290143294801995
0.12239391353663712
0.023245153013630497
-0.057635740813697184
-0.001244146072935628
-0.019167751436090726
-0.08630009005394457
0.029298026083663515
0.08082104737987861
-0.030594274736359364
0.0002875438189456256
0.04021002506537062
0.044851452811069885
0.07799613940167831
-0.058297250530661794
0.07058190003371805
0.02212884219105427
-0.06226611869337269
-0.018627436103323746
0.03790623800162017
0.019527496377063008
0.01763400819016855
-0.012726508706286555
-0.0037109110013559335
-0.00480419031896096
-0.01055750267283146
0.02072754847300569
-0.07325444746232271
-0.009205495681241195
0.11110563579047922
-0.024882800569874092
0.0341357605179706
-0.04173665248073849
0.011502329511534671
0.06662213479819375
0.003647626434693895
0.08536165817464476
0.010679042247422903
0.07998697627317303
0.029230791597183916
-0.02554597992958796
-0.0022259339184643703
0.030987399569738408
0.03499771479041094
0.02569993569833656
-0.008460936989166895
-0.004044366236925641
0.061996051283800896
0.01426423120521328
-0.09509036713584423
-0.01326310039072002
0.04022075020164406
-0.06302057299265645
0.03097206976429952
-0.018680492374875204
-0.1029083819810023
0.027115611307213308
0.013033446760312468
-0.09676485337786431
-0.02169855235801487
-0.002944604539740799
0.005730340769604021
-0.06393119003295553
-0.0010776479633926273
-0.045040993817077324
-0.053515568190948985
0.04680176943486197
-0.013725751109208779
0.03143568962167919
0.0011772726236527835
0.05067964205643713
-0.0004950513990234531
0.07469469618645685
0.05291012957031822
0.07247330677811596
-0.05161078422095832
-0.015989592863791712
-0.0966684150894474
-0.0606236449096185
-0.0014753491558952279
0.011637983704057496
0.026276633390748122
-0.062368757394465235
-0.04945598531349982
0.002010235977707727
-0.07775021321918883
-0.04618567824798436
0.03374746969997162
-0.061371302667543814
0.010055986377851621
-0.10748989933160127
-0.045179215255248664
0.04643436760835082
-0.07483491032407504
-0.023760400568454586
-0.07255485189161527
0.02982913133938264
0.06113809278381436
-0.04277103094790531
-0.06115964844820352
-0.08026531312319984
-0.02629741290131428
-0.034525649631974846
0.010087229334294685
0.04536325288287637
0.01868644104946569
0.02127536912231462
0.054293104977124064
-0.04868654887723388
0.041723956914315546
0.08028449761593148
0.4291142427583381
1.0121739897957804
0.5183869291304686
0.11524076661706316
0.06886608805751436
0.011685141464597872
-0.06473696141218645
0.05554822633860617
-0.03474624807221007
0.006548450127860636
0.03640633598097747
-0.05606768651405633
-0.09243487021612472
-0.017203447294865764
-0.013375386474686514
0.07939781393181589
-0.03347853155805083
-0.0986419512572753
0.04276495855315189
-0.05702378437461872
0.03134258425105419
0.0034396568387215485
-0.03475919389932709
-0.023581998633212826
-0.013706686062366356
-0.02599266882904118
0.03433263130001956
-0.0009084605186710868
0.0733352067804023
0.06284645774134402
-0.025763389483511784
-0.05572671039882689
0.07795530618918309
-0.030282705466740407
0.028192786233855863
0.0010801928269980575
0.06719266092067482
0.03290198656981081
-0.01716852788638192
0.026433082049813407
-0.02720394106539414
0.0027147482618447303
-0.019360466544962568
-0.07082634005609634
-0.01433506732404577
0.027299490316634797
-0.057438676570330284
-0.06650951165238884
-0.0030306897581330607
0.07144086535329135
-0.059069248705136634
0.09525218302002973
-0.08978860748997895
0.040051560726729274
-0.07186668069800436
-0.08606377358809955
-0.02850594664926591
0.03380810838457188
-0.007646673133364976
-0.09957102587272217
0.061762787616854234
0.003341686863745266
-0.053652047322115176
-0.055762280090883055
-0.010932106223701983
0.025772238780095515
0.04391512240069628
-0.03457778067529522
0.0817152618842262
0.03125782257073053
-0.030269838542080076
-0.08408747771691245
-0.043618998753962634
0.0546882141729366
0.04491718222302712
0.005400770876189801
0.12902011002355337
0.03711504627576446
-0.02355933389523781
-0.12290105692081124
0.08282099568674212
0.06343345302189017
0.04748527759042892
-0.008297679243025744
-0.010574983109784657
-0.02380807754161146
-0.024597899403667547
0.028843809510723285
0.015956447513273703
-0.05554306311651615
0.025311922382784027
-0.05707851821250281
-0.042771017342153266
0.10744352129533681
-0.04022050102299937
-0.04251370327051326
0.03038085815986606
0.0025513420416193662
0.03894110117581887
-0.0337499097298687
0.01725374750753247
0.02700443171837691
0.03861585173931781
-0.015259043520908773
-0.021482977148115104
-0.008488225840117049
0.06452211138406795
-0.005008276563720385
0.0006374722373303186
0.0004642947672224291
-0.037063626124335156
0.03952423857632049
0.02300792865832837
-0.013856457533618508
0.02588887560936022
-0.0035740613666533417
-0.0625490429758058
-0.034727370389075
0.015443766885900021
0.062404199094975965
-0.016722798256566737
-0.00040560711534379896
0.04460376669004946
0.04514425278555733
-0.00886634345166197
-0.036138698955379626
0.022561249079995266
0.032809211789030165
0.03249469693825147
-0.004497138891099978
0.008206734257822501
-0.007554087354769115
-0.013192826656793886
0.03527843090424991
-0.02815664466735576
0.03326955523293792
0.04492169003341952
0.09724162126784726
0.11123302609647118
-0.0017126368236958717
-0.0040243505561149565
0.03669240150856338
0.09079030904978957
-0.05175095915939391
0.0700889415937118
0.05197824806293958
0.007846745068777689
0.0449953940039995
-0.0013980097201707123
-0.01414990596956364
0.03143078259819371
0.04019114296392501
0.07000140370382778
-0.003417537849169803
0.00945947202048026
0.04638909243700015
0.005706375058008875
0.024212984980292212
-0.08543387998169072
0.04920248573721445
0.03467258754300852
-0.07732408475213864
0.021575549643898385
0.018213630979608302
-0.05679039864567234
0.09737800344135025
0.044650737152251235
-0.04317568869988556
0.027546274892965572
0.050038708291507174
-0.05639243043178378
-0.003168363148976986
-0.03689287555111908
-0.024313871221374437
0.052956978779439515
-0.023297127356971193
-0.029356773231536338
-0.005178436683300251
-0.04534296405181459
0.04790110624258682
0.048323920976914826
-0.03463676247788165
0.009934852266868707
-0.01587462289919077
-0.013496110874264434
0.0231203099837357
-0.004664808244273106
-0.09101774919843816
0.03870526436765974
0.03516381185662736
0.02500292489716068
0.024798127540108125
0.06656675515190712
-0.0849066027616144
0.0018115749422496982
0.019021701269767453
0.03137731104563309
-0.05245425446715146
-0.015828336661707288
-0.03428949237850606
0.032968649479223705
-0.031051298822608975
0.08679005531906778
-0.03063381701989449
0.07488410047915724
-0.019766622856204723
0.04996976884981925
-0.0936504077151114
0.0891106696775223
0.4912122626243347
0.9591307429739204
0.42672891574505234
0.06532983642099177
0.03188019995760927
-0.044963811320477214
0.07266446702642318
0.027083515473243502
0.004909851683443532
0.05705227266027538
-0.001858228781360963
-0.026725378879231
-0.032012796184995064
-0.06155085459853883
0.08671971978697526
0.013303689314520604
-0.022323887505364407
-0.004164018875049286
-0.012183664075917373
-0.016152759651373753
-0.015550740220940128
-0.025137729878970002
0.06742960045585816
0.03456090778827484
-0.037530024719730826
-0.015016753213302697
0.06589374548958567
0.011565659017421227
-0.0490428568304443
0.01068756121031648
0.004171219933887642
0.045527462114134415
-0.037012465245742907
0.0005583454244764003
-0.09223364646406113
-0.007708469242609603
0.018593131025498973
0.004950752929299761
-0.047414391294176905
-0.006269120467140077
0.0011995977321319145
-0.017978343429577253
-0.07492741466336611
0.00029599995777881874
-0.0021209759461498917
-0.0932757208079471
0.0529769638821706
-0.059954738565866986
-0.05768755971781151
0.054194775790480626
-0.061638792855246365
0.043036814002968694
0.012604718428554946
-0.04032771024974859
0.05047640649565898
0.007046137171162367
-0.014815650792653602
0.0838574815396661
0.00859912509987011
0.025781641156474428
-0.0012286395173893175
-0.09805389277423512
0.07478804275007975
0.011574430395359438
-0.04771595220376061
-0.023991463009943856
0.01768089674745705
-0.019464070896160493
-0.020967344921919765
-0.06826601412834736
-0.0020831051785122658
-0.0002691208966731351
-0.0011925011230905426
-0.11224592353899812
0.05659939464601062
0.001332673587308617
-0.026429269053062213
0.039226546981344604
-0.04978143206783955
0.0036580509265002076
0.06002509373691744
0.04379447516786465
-0.0689717172508366
0.0007834757340110326
0.048467959899327256
0.033679706008194095
-0.010629628286186396
0.03761452084544175
-0.06872394779532923
0.03801997845688584
0.012090243030364727
0.017089627966082686
-0.034867743066346324
-0.00817924673540374
0.14338624922522666
-0.0037480300970251473
-0.023324862292664478
-0.039978266297054116
-0.03776205430169655
-0.03115147173260542
-0.004715692487890912
-0.032701668756291526
-0.021525443167035543
0.012312165135903727
0.04169831956902184
0.022155837848838993
-0.012691442990505945
-0.057498458173702506
-0.0042654174034717825
0.013463442473839446
-0.07505819154549957
-0.024832622126864677
-0.012196281747937406
0.03965537504132213
0.01411565951152794
-0.0028028078237797398
-0.14674042423449488
0.02410468787416968
0.021294153055510537
-0.0335254369398649
-0.011260735393348934
-0.03516977399593104
-0.049308753436714814
0.022869773370243818
-0.0475375565499458
0.09520876880074347
0.053292261803579336
-0.025326232577274572
-0.023605641071187615
0.027495791128657028
-0.06288047333281734
0.02215726408937522
0.06281260052296533
-0.02108002516452866
0.02873332878452773
0.012612911288093548
-0.07029214520405667
-0.006094670290735789
0.06036370169361069
0.06822808100053142
-0.06684836590778624
-0.0016283637387997877
-0.10484525675613468
0.03968270691255923
0.09137182012603895
-0.05823520407806019
0.0747030853409731
-0.013454503348805037
-0.05935067926281064
-0.033072047516283676
0.05326873956227558
-0.024550488203646626
0.02509642915350648
-0.011242715167743372
0.0731080739527336
0.03868612505188808
-0.01704497038291409
-0.03247753312835402
-0.010606132029890011
0.07877603939411493
0.07387180572633854
0.032220092353373204
0.01706819938313478
-0.020173954914990466
-0.0272440847177293
-0.007981946506775202
-0.03436018167291635
0.0889666984160424
-0.08495290672246084
0.030169205985279713
-0.014188603644752074
0.02386520655783418
0.040598772461993976
-0.032772267496173145
0.06711727241442017
-0.031190617407048805
-0.06115638493910448
-0.023799766150867506
0.10967945719897894
-0.018015970417021167
0.03735898955318525
-0.04402282764404514
0.06070069189013001
0.03962593686273133
-0.012328608456283389
-0.0860630641545887
0.02966313236852114
0.06323684096504356
-0.105363193221738
-0.08680732562450548
0.04444837633009627
0.06868689366394896
-0.014908885397026709
0.009612243114526747
-0.01569889487931491
-0.011268017061994087
-0.08335883276164452
-0.017348019567844573
-0.009814337264169215
0.06865338046254499
0.02704266381719836
0.026769200877716018
0.011547219009221447
-0.048808511316727116
0.15778741869772556
0.48545446688165084
0.9598468422972934
0.4793861847244401
0.16230039304913987
-0.008410293488427615
-0.03496117448433934
-0.03276826480729227
0.0908672312647802
-0.09595929910988443
0.05657554100614823
0.024346513091088054
0.001765042027018127
-0.10603227669456661
0.06583547537863789
-0.0007771800121339212
-0.04566675091431455
-0.013813595897035858
-0.033836530322623855
-0.0012846610209760311
-0.03437377462304287
-0.026905962911256416
-0.007619163780474874
-0.0005267295406997016
0.08411716614609906
-0.0455288850855012
-0.029025469242434328
-0.10852004993058338
0.08940649781315063
0.07415089603197493
0.030515986456561818
-0.008984472599067565
0.014863307640639305
-0.07881739155859845
-0.019255106893720318
-0.020141502232757198
0.044754254497520234
0.08244810986378384
0.026163826329804237
-0.029634043603392796
0.03904634745397296
-0.007475735257549088
0.004009037036415373
0.018517231659452123
-0.020682359618421513
0.039527466844067945
0.01818106798338957
-0.04006819815963175
-0.05032211382007922
-0.018466386704165963
-0.01882857508135541
-0.06344659077892051
-0.021101817756441266
0.021419131139657762
-0.0848911463892013
0.04999472909933628
-0.018247670392235318
0.04689032418954628
0.059334481134294806
0.011439365276196465
0.045855071663847585
0.04242841602360838
0.10285071885745754
-0.043704312459924205
-0.04134158479633185
-0.06791617019580728
0.010589280751006394
-0.11444151785234698
-0.028961066006982863
0.07737444838735291
0.03129030314553952
-0.03385015611981504
-0.043699685131167273
-0.02170453413663977
0.026573116148244303
0.015212702222893318
-0.008154341879806732
0.024844964034176412
-0.0864798364671146
-0.0320270248479037
0.011786092846869017
0.03783372668998781
0.036514862319438374
-0.029435930654426453
0.004864097994047416
0.03785363753906912
0.04456828535201339
-0.011573805687122317
-0.024882562868160638
0.029389596680109015
-0.02493191575324493
-0.0056350278076550625
-0.03066672873756068
0.054823588277204405
0.06751793121854602
0.00011520375780846938
-0.02021823421291992
0.031286819605911
0.04785243738097114
-0.015215645925132644
-0.040733901411629005
-0.0048651988823596
-0.04898738444595357
0.06360415499974668
0.04049770237950633
-0.013966180112079353
-0.10249472321214557
0.12459444979656512
-0.04130820981463984
0.002363136872939954
0.01860922312439951
-0.0695873076316552
-0.029303983768690325
0.07084339075196022
0.07190980496693461
-0.05049309508996064
-0.025015783852004488
0.013526255715181654
-0.033612058058045145
-0.013980093630588261
0.025805409160015304
0.07510035449302925
0.05410265991287329
-0.1212266867164164
-0.03130279178739028
0.0302630831413193
-0.00011215235569810459
0.031188265697281493
0.04957707104665993
0.05846405401648924
0.05459132169501987
-0.12229690664750209
-0.11035133477463457
0.04986836651960828
0.001544949582082236
0.006136491145182679
-0.03499078964635901
-0.03341213995888289
0.02380748226594116
0.09784420127274507
-0.02785153889092068
-0.00479630724358035
-0.10725163974643666
0.0022083866322976306
0.09358364354001564
0.016400638057425098
-0.03973515482075197
0.033886519884759735
-0.0428118036763554
-0.03437453852725919
0.00791445307997171
-0.03362463643743451
0.0837198753392633
-0.0708787366198884
-0.024078088371706406
-0.0509018253032916
-0.04381756786022182
-0.015326671413236782
0.056644867000886515
0.0308650425730714
-0.008349831349769379
0.10494075528028997
0.013446795075965521
0.03622048522252439
-0.00561973892876744
0.051681346176089715
2.2767678410903457e-05
-0.11472607637825899
-0.04719693900978668
-0.061765781119581156
0.05845452882236062
-0.02022796027514788
-0.005190391129097756
-0.007112651617341962
-0.0011334727943497437
0.10310599528499689
0.0019756858422294377
-0.044097264253475536
-0.028066398687040497
-0.05993668773049726
-0.11108262998228471
-0.029040603884923112
-0.07203400095781813
0.08168965637711614
-0.03281579191255641
0.0604429568751538
-0.01911622035863242
0.011357518092175944
-0.060402756818338316
-0.09785294849792732
0.04338916335566545
0.007863632699757738
0.04799234287529472
0.053355815705348364
-0.05992630003281353
0.00931449156228685
0.0479221622560843
0.1219668937929251
-0.11492012811987706
-0.038175258592821615
0.07399675193556343
0.035004957561707066
-0.014190078390826037
0.017509205140199793
0.06022447490112546
-0.028281822245441242
-0.11654545104824608
0.007666740400601494
-0.04123353367795224
0.029456027769185874
-0.06262009443308712
-0.06898697881305654
-0.03221265885167448
-0.045376072882009594
0.07159609554539122
0.021934603484795985
0.08211015338293184
0.5140045690062442
1.0972802236668395
0.49880495188712043
0.1276828511688611
-0.03742880376302388
-0.045945113601832295
0.058460081014116864
-0.014071514081039092
0.006873614153588931
-0.0016453023445107016
0.01727944520224547
0.027238100971698077
0.008355861053868346
-0.008596313880098587
0.02800146245083923
-0.05911198908488881
-0.003553187620766686
-0.006691992585916751
0.09683487680327126
-0.043677610733010575
0.04127089454069508
-0.032601432259402645
-0.04618439666412297
-0.043668275182730476
-0.027053502859925405
-0.02379418318827116
0.023439886494691156
0.02876874269005136
-0.028791353025850994
0.06830412550876781
0.0018920568276753467
-0.06445758263204406
0.10316735659905528
-0.011304398666627927
0.09852043241914754
0.00827091970729259
0.01312066402597372
0.06740527701475317
-0.029368566871011567
-0.04156832220657736
0.003963800926153046
0.004921746031481562
-0.05905092612881549
-0.03603448418521237
-0.07157121907577832
-0.06247015414889773
0.03372820676588556
0.013508700661446127
0.08318233727350992
0.04705863096156288
-0.09628062504302169
0.08925268249008124
0.0205085448638851
-0.004036159072197075
-0.08736179144120589
0.11604568501672835
0.008478040630996362
0.033805770762306724
0.10033539473166393
-0.010638527037181463
0.0330146091819104
0.02878417154352474
0.04748955084049296
-0.01992301620078371
-0.005621428194354711
0.02048585397938732
0.023861160085475668
0.04020600699816229
-0.033679142031261926
-0.04853389332362987
0.01871609921107733
0.08156550183368572
0.03168709595657742
0.04022131359641934
0.043840187203994734
0.017397255559142576
0.05330978254670049
-0.08162866072543212
0.07729848015693071
-0.02957485319926105
0.0513705108223817
0.06276609428388587
0.05249970301595012
0.021131619498199042
0.028540394164755085
-0.09163234075634866
0.08480384969950823
-0.02643282365046657
0.07009213981502717
0.0012646406052201267
0.05541169742609834
-0.019845598596552112
0.00019923408791065321
0.028045857357331262
-0.003232924864947726
-0.044345198188570675
-0.01500172256529561
0.03796857753726676
0.0026163094070636946
0.03852543926049183
0.09050514416734548
0.009629511996229669
-0.010245259526007043
0.04289056970137631
0.007302005007901062
0.057867645294235485
-0.08809944424753113
0.02393498474020254
0.03199841919149298
0.05478387682903747
0.018423714588446438
-0.006468819003170034
-0.03723377333079046
0.01660568414784972
-0.004942362963318865
-0.006237809080213107
-0.020478624966470852
0.06859923374049491
-0.08917642394557866
-0.10121164561400463
0.06069188911540463
0.15090608676172915
0.009158824246515016
0.07194961501627166
0.08337280367247135
0.06357981851280796
0.01095760117836274
-0.013973400937495443
-0.08115852807664485
0.027931207827332057
-0.014475322246747115
0.061175363813839895
0.0048147984965158245
-0.04976142692103767
-0.03211109240163421
0.06644534019011474
0.0151543760704713
-0.07045122026294234
0.04201167658423734
0.03478294107573999
0.00842204116201844
0.00796860697744317
-0.020214608098029357
0.020288383884673206
0.039822356848431245
-0.0016938103827952974
-0.06149977387409148
-0.01477215531015743
-0.008863469075786291
-0.05383270995312737
0.01884898763619231
0.08930878536369485
-0.062269245323972315
0.016379056392634584
-0.027908875644370425
-0.024533706114761272
-0.02575239226691417
0.08119302926426804
0.018942896992133338
-0.0030865749116667216
0.001201950248414254
-0.028409933639579322
0.044281454254894485
0.019194657587091143
-0.1067007544154503
-0.06017411201147241
0.09659504215376559
0.08443359337741198
-0.04458862582156326
0.036982134536346994
0.014864871241895273
-0.03470157385557166
0.007695229587334904
0.023488738186046337
-0.0338764865624369
0.0008933164110635817
0.0569244353471858
-0.02980393381072341
0.018486318097942985
-0.02965592452678254
0.07755193440479537
-0.04865627030853153
0.008135806901643438
0.07864963446842783
-0.03678607261017503
-0.0047092102441357265
-0.022724039338690948
0.06422558450323142
-0.03654473486042173
-0.05408967489747386
0.03544182082346025
-0.026094232225204614
-0.05023677845721885
0.029880085078732868
-0.016675032492199978
0.018898707014504787
0.08792774379528182
0.05879338536163375
0.005119966999806721
-0.014648985580949736
0.04856717533897076
-0.08378377269449445
0.02087661957468101
0.012786782597498712
0.11063776157608826
0.5330620396695629
1.1067888519619014
0.5434060617266386
0.06488785009732309
0.04014077587261736
-0.021557003055624167
0.033279382937132396
-0.10616443191820212
0.016467276917583536
-0.08715898498702851
0.029515727192894626
0.03589562037712168
0.041655083532087765
0.005369181599765213
0.12294585704396009
-0.04340705127330001
-0.02584226702564398
-0.017811917566781976
0.013942240970787194
-0.007058040171852478
0.01657694791839538
0.02013633164178406
0.012783042335705387
0.08618365824557463
-0.009900889340607028
-0.024139592163006564
-0.01883994904696115
0.004275704775551726
0.0806342880111293
0.03541844000563054
0.028070559853606694
-0.013214661562063601
-0.034097170874063075
-0.0567477021042154
-0.10144794308853365
0.02546074782467324
0.025301695931010615
-0.05146583543860244
-0.025059991777263976
0.06849211242129387
0.0048650908664051385
0.00067185057838949
0.01951548367341524
0.046365170133247896
0.024947403089325193
0.08312009000317906
0.01475115991124004
0.020176654574305588
0.02429348576387358
-0.014688779288579382
0.04443500328087989
0.06438935661978529
-0.07318814354853863
0.089451824312102
0.012811069609455017
-0.04036614232928106
0.046022318084706325
-0.0008807930228280324
0.06959920115027357
0.016228086092721382
0.06942676603800182
0.013447716998264176
-0.05277681347942519
-0.005374152742541779
-0.021040038889658084
-0.028843085994558617
-0.024680616506790445
0.05533851526716136
0.023168552567643472
0.050402951718342776
0.00646887780289583
0.05088595404587868
-0.04420327549322155
0.027325393236187875
-0.04360876381620336
-0.07343110566471232
0.0861837194728721
0.09467827645747513
0.08120096054356597
0.024580602169683857
-0.028335156295068765
0.0007766289344809866
0.03018602777749381
0.006785651083892167
-0.008702475523747954
0.05143463536604066
0.06407976180510488
0.07629176992934843
-0.025765793735598782
0.018688551713376966
-0.04760026606829722
0.04026614400158279
-0.07125449329994468
-0.0679617510922163
0.020407803686910114
-0.03770914447774008
0.02289029025405055
-0.0330158020298146
0.0381172945562937
-0.013507230529738876
-0.026220575457688
0.002916392180459998
0.06280191386279148
0.02160079554963465
0.11585988981116374
0.0686427606541196
-0.02779680756770536
0.051563116453820106
-0.01921608512337063
0.007662529169806108
-0.014317064754193233
0.04901456391169973
0.07913194295640356
-0.0251552571102942
-0.006093945888326299
-0.023687333494296588
0.04833878816544923
-0.009918248878576633
0.05440361297488999
-0.17570038759702408
-0.017225617594327162
0.07519115612545568
-0.07453082188164241
0.016711302626235623
-0.004254610477073054
0.001813920554465536
-0.05385507538624254
0.0501893833653012
-0.05815100192862482
0.036905848566773876
-0.02732472077766944
-0.13227433809910416
-0.013341408133692001
0.11340293271830036
0.0242972288231834
0.04273501101638329
-0.05173991535842686
-0.02109171294812674
-0.08072934099025582
-0.01603002178351833
-0.04221950931417923
0.07658278915080433
-0.03886959301016513
-0.029445296904611326
-0.02947385028656595
-0.0027864696018403074
-0.028201968506442035
-0.01752861532827808
0.004463018406178044
0.02766077869597951
0.027682337401628582
0.015712397379937574
0.06404043318316681
0.023058578304233808
0.019291934581685627
0.03402715890612289
0.008557421121154481
-0.03386908337155169
0.01560630704087879
-0.030496301432063944
-0.10013958899601028
-0.029145657921180138
-0.03053780680254239
0.0015275525723300507
-0.022431058961098538
-0.052814188111511146
0.01883473339290838
-0.10536908453066088
-0.08249850866713432
0.018178360676585122
0.013644884953813522
-0.008796222428904635
0.036159021380557
-0.015122525139225719
0.035698696228278017
0.03381687194831994
0.03166529980744165
0.05176867596307172
-0.05742152060290642
-0.04482254716414218
0.06788712160668363
0.0028594433356604753
-0.07880291523405356
0.0314842496886683
0.003409212346797374
-0.019447537965203626
-0.017775395163745863
0.07291467460403706
0.0197557357905465
-0.06497726270550931
0.02281801770902357
-0.040755977270187115
-0.022143932180852657
0.07475134727154474
-0.0009394858011526298
-0.05001580873344807
0.012275399233977304
0.06669746273904563
0.03578800957486035
-0.015160892586049675
0.045078488310739316
-0.022326126907222972
-0.0259053886600874
0.08270920362399795
0.45162422180679196
0.9582217843958254
0.3916470559394906
0.05696743785140639
0.04537830707164213
-0.05730228389352974
0.03417063793228813
0.002632599592576791
0.0784760234655637
0.09421182389783869
-0.0008981524225044407
0.023789823197532076
-0.08160080021753524
-0.01192701614593615
-0.061186161589783176
0.04632531340910868
0.011875883674403447
-0.022326343996762307
0.024880835680286987
0.10316173547794694
0.010407006524508463
0.1132149029332088
0.06268727903454338
-0.005183469423279533
-0.03397287233732656
0.029185130269395426
-0.04075676672680173
0.009985677534077184
0.08527935757379246
-0.05912123842247246
-0.030556211268488537
0.02374323057523755
-0.018117563235405375
-0.0667280938550926
0.05278176778167944
0.0028884971073727967
-0.061389714750256875
-0.1293658074046756
-0.0008786691783460956
-0.013119267573012731
0.05335595863174319
-0.04902133821801311
-0.06690869296399536
0.06907022620922468
-0.026372159057359814
0.015137937718131775
0.0032532290831274128
0.008011436194147077
-0.07221592457938751
-0.013455554316592894
0.05120296924122252
0.03370376811794387
-0.0394564932206978
0.023158384101468102
0.015356974531468665
0.020154881515760663
-0.03235005273441811
-0.03738744113345468
0.014887504975394464
0.07967100194215185
-1.9731053673675728e-05
0.05068840538013169
0.004824145700425813
0.0183531964363955
-0.02122005360901571
0.05332120324658679
-0.030815979981915903
0.05608002778388104
-0.05999405985269549
-0.04329429309817101
-0.0434268803804314
0.004495408526476611
-0.04165896616504018
-0.07454498626835958
0.03338016912115103
0.13325374984307709
0.030294292243728645
0.03336061332223396
0.044951981292679015
-0.07632090758170278
0.05668290955076758
-0.020167248124037886
0.03545078613316728
-0.05134192563603566
0.06610375493115321
-0.028745184298057697
0.002811333910482092
-0.11306198220339254
-0.022428666222571184
-0.004160626931912039
0.042527428919811185
-0.026342620175062177
-0.0024395716447458845
-0.0010217983284556216
0.06488956980316972
0.07791351457237755
-0.11799704398737446
-0.011157206944693613
0.04098019475018038
-0.024124663334265165
0.05372990572431056
-0.04920091106176744
0.018739517371093386
0.12183306546743551
0.07452671430983285
-0.038308776522038415
0.049322798541110636
-0.010187792329390846
0.03161441433859582
0.012605034483015433
0.0009229302942418684
-0.013804081298302573
-0.00740192652882302
0.11839152458032239
0.0006988338189967585
-0.04474023569912026
-0.016563412201846914
-0.017165377938657495
0.029300111209604712
-0.06989755628896911
0.012038582742250089
0.13309733251683342
-0.043771547911189757
-0.08237692827436122
0.0038524001164828743
0.004556485055487439
-0.009938532970559551
-0.050952048815846133
0.03027694748333587
0.04203017521133065
-0.003962763468262315
-0.01477113935330658
0.05411633977235595
0.04543662250982989
-0.015320725567296032
-0.059072812310330916
-0.04589891195760587
-0.02249643511346107
-0.046586714341877715
0.07353644356981158
0.07365625112415759
0.014821125549916096
0.014032658772695628
0.01541754032458606
-0.0048551613708941845
0.00712484380802908
-0.020731752609504123
0.016731677247972056
-0.008332845649187456
-0.02055945819187835
-0.06670773483853527
0.05959417892422778
-0.08924828964528116
-0.04980141542487235
0.053554850304427054
-0.04499477639854802
0.04810032893314928
0.08240824838193066
0.043924697755557754
-0.09353683609141564
0.0011426918265108677
-0.053210782509290525
0.012658270332303101
-0.03862848420719894
-0.023193279650228275
-0.007005379598415933
-0.0069475172213274514
0.014349787806142267
0.04319332939095256
-0.03140602635398338
0.049671914562253734
-0.044700202943261214
-0.067781957479467
0.04144320400036363
-0.0478735041319315
0.03570094703166196
-0.10780529502062937
0.005022087627835629
0.04004155358579311
0.024292784367737755
-0.009984842044026672
-0.005788223821603475
0.03558057280976066
0.12051381209787536
0.014471509622518159
0.04813693196614186
0.03641641567964308
0.01855395596297813
0.011608201068248551
-0.012709133559597558
-0.005569172484311566
-0.05122466931086553
-0.07811145374532039
0.005274564856481916
-0.030063660797243475
0.022152409310378436
0.012228259151058128
0.10114682307457641
-0.011041302825526718
0.004787430247065301
-0.04811978408171266
0.0031786933503747043
-0.02205332195674631
-0.0020266309346849798
-0.017816680762767184
0.015593108902802317
-0.022189099482647842
-0.04627397605714734
-0.05574140990529395
0.03413097158903291
0.025484215564566228
-0.02566708683819598
0.10115819609548311
0.010300096013730227
0.020588380636165443
0.018254030297296286
-0.01633316478260922
0.010091912511679473
-0.007368909244218746
0.029075029021354407
0.08893692043833855
0.4587697421265713
0.9899016249344675
0.5302321798514573
0.09823481526118288
-0.013184218332200102
-0.07322705758371859
-0.02679461240789522
0.009987192774611471
-0.009901942551115763
-0.018735606213658888
-0.12422577149171653
0.0869322767929891
-0.042994446818392484
-0.03947799870475932
0.021931029560366154
-0.01859296391460867
0.012122069912256152
-0.003539761932754866
-0.040030524964240775
0.029424599748800653
0.11457917328361154
0.00853336129545634
-0.04423209264771212
-0.0036121681399221405
0.026907893075940076
-0.01753864260650568
0.005095935707734967
0.015402704723790878
0.0029122661645080276
0.024606551215166635
0.010678981376356715
0.04819520146640158
0.024451990639916484
-0.06001549258906406
0.03237308572733671
-0.000442936263346774
-0.022303301947541446
-0.01663546490977512
0.03784377443233986
-0.05024296989335794
0.10872753425846426
0.008500796234112764
0.03454533969055675
-0.04311587400386653
0.04687877992623573
-0.015656683643614527
-0.016010883098107914
0.02648311100133372
-0.04636237317370143
0.005516196215358447
-0.0425184654766251
-0.004154646638117154
-0.030614107072099397
0.10305969421030232
-0.022333397966184044
-0.019408812094313086
0.04847543907023971
-0.054905353084511346
-0.023195071235323463
0.03062093336583992
0.13489646509579484
-0.015674011909302298
-0.013813488488120926
-0.042530062881896466
-0.009337712191744165
0.019661695383009867
0.009549747062517008
0.0032618794787845637
0.012977659033684898
-0.036159543930469405
-0.08348480457545097
0.02246491971585449
0.005851156677739938
0.017070050188850373
0.034120583099202774
-0.07164473395312303
0.010648308707809145
-0.08061853092308653
0.10030793911652885
0.00745531528551956
0.0196215321547663
-0.003178641147191247
-0.03576445111090919
0.01744701880621928
-0.004412610514753351
0.07384927188115416
-0.06374262472021923
-0.09674742830964066
-0.018020635393032353
-0.046793293881051364
-0.017150037548249664
-0.016752489536743083
-0.007433839895507913
-0.029057075802336588
0.023921519301541835
0.06426823766375793
-0.03200385029678705
-0.016078550322984105
0.016549416314369927
-0.008846711617317324
0.006100178740236563
-0.018143420758006876
-0.056649496178860975
0.05175589091856301
-0.05776272880654403
0.011562651283899538
0.029423186307199013
0.013141232672269663
0.045666959859835175
0.022522822072252542
-0.07806767581187332
0.007554002305683792
0.004984677905087523
0.025450487856867123
-0.12604020991033207
0.09614595547703444
0.14397174909613758
0.0014366124069963631
0.0011347412890197611
0.01732887587410565
-0.014810064222445378
0.020363710074646612
0.03557909042258478
0.025756108080256652
-0.04731875441312706
-0.012583940681691176
0.07139537058793381
0.03321440031492625
-0.010910553822818463
-0.0565965814027804
-0.052348458954919186
0.044653479322334905
-0.017114468500010107
0.01632032183506436
0.010338551499950057
0.02181684795984657
-0.007876703882418538
-0.044052450295210765
0.027969896640717043
-0.029270290702333293
-0.0386726097970686
0.0004244998553790133
-0.013772831928455404
0.013676822425156594
0.017466477770531542
0.06318213930625048
-0.006917513941777641
-0.012671155311016133
-0.04398512992614141
0.03535498921704311
-0.010762881512958216
-0.011080555835575354
-0.04166161497134724
-0.17710618658192845
0.024511723578408858
-0.008254611795665083
0.02215748470966609
-0.0898608868180189
0.023692775681590002
0.01538310047011268
-0.0825820415145421
0.0972542009514693
0.033091289126262184
-0.056417186450535874
0.043292911679258826
-0.03375733937708947
-0.026790075436671824
-0.009700457662497493
0.007430648043571394
-0.0952502269455066
-0.055911482865079166
0.0075636551204338615
0.025416327620775076
-0.0004977420879563803
-0.016914144413538012
-0.061292301704363374
-0.02347827514875002
-0.07878810882403563
-0.018863596686375998
0.07993773438179562
-0.021855758028280048
-0.09677098451907358
0.013779081910834738
0.0026048680283897313
0.0731825054559465
0.029959861385317282
-0.0214225997746197
-0.004052192688260399
0.044198659309757776
0.039302229679769526
-0.08262860203768753
-0.003322733388519315
0.058718781642694506
-0.015053787952843185
0.010950608287968726
0.008814765378007716
0.0479851066144131
-0.05688900765739339
0.02093078190586215
-0.0343647829610273
0.08726046356759908
-0.04577367695526921
-0.08535942926340893
-0.006062951386518426
0.005654378989351092
0.127977152202098
0.5060186933606237
0.9953208506827976
0.5926890988544552
0.05954381223628856
-0.0022254907023810592
-0.029568881290606537
0.02815595622882039
-0.14526512023466295
0.027276541926112414
0.07047229220649498
0.06785245608322983
0.018866916077160387
-0.07796325114315443
0.01778531956654054
0.014096619886450893
-0.11868379193712018
0.09615497341904977
0.010474322822260011
0.10049674772805534
-0.013394572087059851
0.05819646437516401
-0.02061804671586747
-0.01915117694974127
0.034127281622414005
-0.044161671449729226
0.00605192420568703
0.021912623830051284
0.06277070059923162
0.13534417319397632
-0.1555992738514873
-0.015442213876842595
0.09355627134068185
0.023868059390501826
-0.11842702210323913
-0.017360165308205184
-0.010916778324103933
-0.022606739257477255
-0.04096405281082105
-0.060455897685266484
-0.02106257048077048
0.13528444614376758
0.0921830136633246
0.04587360032858154
0.010418916674117077
-0.029401649185601092
0.08198951084777083
-0.0023806540320681466
-0.06435708692741009
0.009969307748689836
0.021550623495031895
-0.013894483500748463
0.0008240699518046569
0.03726981403261181
0.06394092596683208
-0.014235838670604154
-0.02957311136809288
0.02636121131562082
0.02947553559741771
0.0527668220142831
-0.11744190387235183
0.028098195236751645
-0.025264286491376593
0.056191411816732734
-0.01879155098102174
-0.1176389340401952
-0.05700492020122802
0.06434943434357367
-0.0530409005276197
0.0990708484197318
-0.09425896333572809
0.007215278469778558
0.09419573308608517
-0.014466303856716406
0.059894258624008836
0.06534501104125844
-0.038030395041644606
-0.04437728997539509
0.06186312586211336
-0.03291543586823159
0.08803141126985242
0.030453593257234225
-0.06647175235109319
0.0821654030145704
0.09102027006636383
0.045469725317551044
-0.02079371000997325
-0.038570549514647307
-0.00943122112977889
0.016824199591543916
-0.05244029818993106
-0.010274826905430967
-0.0877046905074574
0.06080238793996411
0.034606332266006845
0.03205071360670624
0.0008554140505797359
0.009891994356446868
-0.08929749153312821
-0.018447921197504515
0.08656282399481179
0.012705974335515883
0.0274609212871829
0.020134857666315467
-0.0419812018955133
0.02781278160118277
0.08592392786514878
-0.0055811111841953635
-0.0426785213572832
-0.011445979245930753
0.07652163225525545
-0.029765708991132397
0.041124136540543976
-0.03052226263207197
0.12926150316545099
-0.0197097513597482
-0.04326261589192992
-0.08235207635363147
0.03895948306583776
-0.006786614899543026
-0.044246530603852426
-0.035572665540670144
-0.03889416600969365
0.09438344337657832
0.03208018224310188
0.029945753977636765
0.03607897644753501
-0.01019630524009173
0.009897100209925597
0.051049474670711394
0.011194440987361087
0.012432973612679518
-0.02535499746408272
0.004657004955961689
0.011418649626793842
0.01806741790749378
-0.02085274603263184
0.047849160096098894
-0.03197271912565796
-0.04850862043923243
-0.019478390753871977
0.05573507963455468
0.09423105896770573
0.041096308173036666
0.041001244988640134
-0.054566347130000054
-0.043779719265505244
-0.040937659927877144
0.0032299631832112315
0.03771936796770291
-0.06728981397222855
-0.05658782802717699
0.02234174865526444
0.09872845094323207
0.007113387219429359
0.027057475206237455
0.016599344419047563
0.04708785298720708
-0.0021473541748305916
0.019884799369736722
0.04030131673084668
0.013901306676484121
0.047324077524604824
0.023248659643156266
0.026915760093298664
0.025500808859965647
0.035020734300720995
0.07330475361947295
0.02734727572985526
0.052452885286553376
0.06483239824125811
0.03681254113397974
0.023441805400776235
-0.0027971487214307825
-0.020937900554891295
0.10741390438813883
-0.06850299969794381
-0.057682787999254186
-0.012863416325601708
0.022807447294079235
0.033299351902679006
-0.03158655101878318
0.05312776851047231
0.045537388971402366
0.04222069802342167
-0.01353452903971613
-0.0454018932631963
-0.0404581767577015
0.001953512099936701
0.009828243419662265
0.1006393644945267
-0.09229436298676347
-0.01709503354326128
0.010207329516164885
-0.031989007301240796
0.027880468606225717
-0.033995725442846556
-0.04531991445899035
-0.0061955694840389874
-0.019232939307186416
0.08392589413723467
-0.1050059090200838
0.11523222357595334
-0.02627942375172145
0.012008543454632932
-0.057067940016567203
-0.02228005725702149
0.05736242337311327
0.18034724817560455
0.45868682230315627
1.0325814216074225
0.4741111452534565
0.08531656044303515
0.06318561816245848
-0.016145075274040993
0.005864712094817235
-0.08943339237184067
-0.04713523154027566
-0.027895126456351706
-0.0026635747172687927
0.07521691475352725
0.043500900493643996
0.03550327798557142
0.04627121385436635
0.030313530608498614
-0.075158438378629
-0.0071456463885949855
-0.06392191094008633
-0.04824895825198363
-0.03747329420235554
0.028628096482336846
-0.033563655293868115
-0.12560110982180517
0.12796646426104705
-0.02239700210429073
0.018089031646655547
-0.00957011541766736
-0.04703107270964413
-0.09546784500281849
0.024646346085406542
0.012598482447753957
0.002507240812039903
0.021819615362234507
-0.031909588923465716
-0.04002740594807047
-0.01928603658770954
-0.013065346734341711
-0.001506603557527605
0.02933951278401465
-0.04986548732855875
0.05332447687505132
0.02283654558176785
0.034019692305469716
0.01241393413153029
-0.0020638486228996746
-0.01247794848205197
-0.032185304086605734
0.08683662716180424
-0.09484698223990017
-0.07974385922604163
0.06172864880356073
0.013692864499761976
-0.00470266072993007
0.024016404405726166
-0.03387481488739702
0.04928653495436248
0.020265226593554682
-0.03269863957039389
0.018829877529097393
-0.07165858576364223
-0.028974657975563117
-0.004346307281803775
-0.002760747372982062
0.0222965118226917
-0.013231858204016367
0.050402946827428644
0.026269844240977787
0.004649974643899177
-0.07370627980729104
-0.09254447074693897
-0.07095297291598365
0.06769158923441569
-0.03819651985925749
-0.036008200504931774
0.004767971533179752
-0.05682216901822449
-0.03404313695739335
0.04740460819574277
0.0158590585166802
-0.08062639502907881
-0.0018827835878511543
-0.00294699654603514
0.031240691209519167
0.015567357299185826
0.013989717567360184
0.003195537958063776
0.04857293676025941
-0.10311768245019491
0.060825298888444124
0.11429012206456478
-0.01900290139040539
0.025764135726456274
-0.03418038249787396
0.030710088093814626
0.04926750265953239
-0.05502952857022177
-0.0571821158213475
-0.03825784970603841
0.018162552260537566
-0.06744978743754927
0.01618606042096829
0.05506278485255403
-0.027939629517932198
0.07023311379273844
-0.007496828461871716
0.012284781210883512
-0.07881603118154262
-0.042962455223403334
0.07175888460465393
0.009757727247524564
0.07035889132881316
0.08224487805819747
-0.11858548974465427
0.031426580611352284
-0.03124153623346443
-0.01801292862936978
0.03320071062732091
0.010569441140897778
-0.03044212658870281
-0.0204370859008502
0.06588457692342088
0.02985425111685727
-0.03293772473628481
0.0208927536806015
-0.0026008214575482342
-0.032392201778136925
-0.08484343781321414
0.039118622194833245
0.00240402510012783
0.03292153862034064
0.008272265641207406
0.03417650675280747
-0.018246316496787034
0.04226951749036798
0.07470416354734105
-0.06685267334413189
0.03844383478464318
0.02848012922368262
0.028213744163193236
-0.09748375776994933
0.005658127866133483
-0.023179575321809365
-0.10447448035913919
0.0269240537648483
0.0032010894765115414
-0.005732647932538095
-0.07577713862446026
0.010480572088305657
0.017755743918222437
0.047290167228476176
-0.0576961105777312
0.04637674804370351
-0.06100773765505695
0.048437983765666104
0.035535873015015165
-0.05299030068773878
0.014156652315191568
0.0026039284559785693
-0.08340716377248969
0.004960893665454921
-0.019268974200671085
0.019351479850903006
-0.03516170528312173
-0.03905198940423853
-0.018395670372708242
-0.046117314485726035
-0.1195133162404273
0.0019369035993616673
0.0058236656005203865
0.04571176290454818
0.07607378411090357
0.05707102567629433
-0.04248027343304736
0.05494743698071145
0.06456709177962781
0.061774759261395897
0.014513870008915426
0.022552985788029112
0.015551397770555517
0.046160078419479826
-0.04262545557321067
0.10757620355651408
0.03369382725628432
-0.02066519877746223
0.00035589626402928983
0.08613116206759519
-0.06412301644652812
-0.011257236148545381
0.03201596526582395
0.07175889589727232
0.03868230534724551
-0.0010051029920467992
-0.058005049391298795
-0.055820667145247506
-0.02837385346890462
0.06650875681327122
0.006787818828812638
0.06552883082631654
0.03838493152163279
0.02196581144354082
-0.026214022077856943
-0.034467110426761115
0.060639744712992376
-0.09399653355887726
-0.04116029736255192
0.03558934014344163
-0.015546041196612403
0.015914492133108502
0.02973568733754188
0.11802832822890712
0.5035881406981633
0.9556158348859903
0.47505003511737015
0.0744043913751263
-0.007135104997364735
-0.03163413835732683
0.03907387076659231
0.08652789797910461
0.02161075122745483
-0.05200266046890754
-0.0011079760613822774
-0.0964210588268469
-0.07690782681418071
-0.020824932157439118
0.018689638025925107
0.09120952452406944
0.07565752473013697
0.07106816353264671
0.13567771492891578
0.005891435542565784
-0.06200595265456892
0.0034103282199318373
0.04548748073703294
0.04307146841170331
-0.01260201409034287
-0.07718534338296636
0.04747690047931077
0.02546422621078633
0.02493408730942903
0.08771983826554333
0.052941078987242665
0.030050145458768013
-0.09342670153956958
0.025630458239498468
0.009494111334874988
0.03144659414334798
-0.06965155953763856
-0.05184570313575951
-0.050274682685139994
0.02767506541825429
0.00927678720860987
-0.08168758215531476
-0.05369032261679493
0.06783371564826374
-0.020741370908440873
-0.01716727277706803
0.06104258317655779
-0.04693638532296801
0.05525948398581903
0.007804498710987312
0.017271527503429775
0.06192869507817686
0.02363650142520738
-0.034842071478313794
-0.08092696609249779
-0.05163323996089363
0.026913970313687738
-0.0024091597771722026
-0.044146434536333726
-0.016430482799895754
0.06791425686643277
-0.006643736131003001
0.032333033260383975
0.03765951766370116
-0.0453919138786957
0.02917834604304865
-0.077880198738589
-0.05045899920245949
0.030504497713191636
0.008817477105288301
0.0006428080303256911
0.010024267938089733
-0.09182852690401883
0.009482279687611107
-0.12007115845323353
0.08510994560751509
-0.07124841878755754
0.06746878595512834
0.00017898817457049146
-0.024312963805648014
-0.12880529459988166
-0.020635488674324118
-0.10767155156974278
0.005012827205524484
0.01612754240396297
0.010714165317451105
-0.028185281913356033
0.012753079686227069
0.02549815683627444
0.031077786884091508
-0.010689381228408526
-0.05085604056921389
-0.05446978439468361
0.053782710074273425
0.04272843944016938
-0.09393216627085864
0.03927902649860348
0.0022376319080609497
-0.0923802748490334
0.05286467348712296
-0.008414408180461073
-0.03022216932765914
0.04638349881617342
-0.033862794477810244
0.0005671779816785458
-0.04092465142206216
-0.046757206364089636
0.051771546120675964
0.047677468809977086
-0.00843391212674173
-0.020447371670144626
0.022100611068669642
-0.027214333096217104
-0.0868401397742129
-0.013198553986880347
0.025013787140484797
0.06403734605532295
0.10788252226225337
-0.01861877570509699
-0.02844723735770116
0.034023826340394095
0.06291717202847759
0.01950711856185403
-0.015205971882868936
-0.040231526539387275
-0.09097838067365725
0.011054712239608931
-0.02174436697167358
-0.05551971171526404
-0.10729960243053155
0.009963551743145732
0.04409394667408697
0.024207569847221527
0.055850461895464956
0.026877074852697948
0.05820496838363788
-0.010701119980436616
0.08943789948526165
0.009430248588585932
0.040425156619736474
-0.01942247738319917
-0.06646390191905753
-0.001981572566225926
-0.028730590875271973
-0.019860095913289258
0.06769072336048157
0.027532528600922486
0.01543351303182437
-0.06296232156836253
0.0460103268974148
-0.031698756475121846
-0.013963066179654045
0.06449070120051052
0.05131943604348765
0.06190324092699312
0.04610389729356946
0.0306958873675244
-0.01523021520942907
0.12661645524801504
0.044459831485029855
0.07003214151054558
0.011738283517055914
0.07619412537897319
0.039873486711048504
0.02088375974571628
-0.022848398936829592
-0.049164877476152814
-0.03633687371685787
0.07804217905375421
0.01789976079244091
-0.025499128031268477
0.052949275470601444
0.08856713957142727
-0.0142885097563487
-0.02326696041061746
-0.0034900958099471735
-0.03871205791741256
0.042960170563091454
-0.0015796247984639822
-0.08215266978252604
0.026035129702321316
0.0016334975522940627
-0.005074995514415919
-0.0024382991836816147
0.01818932903032401
1.0535904243103055e-05
0.11322554679784894
0.08738048365218776
-0.0009916828166575682
-0.02800683891190918
-0.10433887575104311
-0.01525988452103109
-0.077710443361794
-0.0026119229830071063
-0.07058817132260016
0.01722638490198534
0.02141218854781071
-0.05918112580463234
0.022957778554570898
-0.04756284247426924
-0.05821055782443103
0.07238675323237509
0.03145134012176025
0.43875256205827995
0.9173268419481926
0.3971601571380473
0.1130957782745283
-0.03805859696584921
-0.05985380627098147
0.13592427590739892
-0.022894588443560543
-0.019015098006930083
-0.055572445673506665
-0.03845440432454417
0.05620441343086982
0.010516860757605086
0.07640003758205506
-0.1267691710548614
-0.06369005432287211
0.0037154580520276023
0.016897750672845525
0.058861694367779875
-0.04399721597341244
-0.06980440143005484
0.06913803717883868
-0.013634643481738262
-0.04643601049820069
-0.10216662834847419
0.022479704422932005
0.006386967868675918
0.037646800831693174
0.09377473617903392
0.005043961235799508
0.013337625327544756
0.03508312755022128
0.017331628873365465
-0.080010569647855
0.058968896423723355
0.01127393659899547
-0.016056938607228788
-0.0005263290197413264
-0.00011542501958346832
-0.05216639715254559
0.04227078616273879
-0.03264331645967585
0.03493971060516408
-0.07040024625273632
0.04222095989233469
-0.07949063679286351
0.022975116811274857
-0.04568318584130058
0.07735427814456103
0.06294426097468402
-0.060005889439142285
-0.053239821254697
0.032346159504002624
0.010358501387649675
-0.0012442497364985566
-0.019551819030029692
-0.006617121240409774
-0.03689551017395477
0.033380197199728574
-0.02558909344003838
-0.0036751261045335584
0.008680175475288947
-0.04638080397595894
0.03835635983083663
0.018862793209829448
0.05746527192150565
0.05121578308026029
0.043391766242928946
0.04256046513113283
0.020486020226885428
-0.04617452622312916
0.01593939507095798
0.009175065627021839
-0.024781342499653847
0.029266185528595987
-0.0021097297013549297
0.043745121582513175
0.06623270674794521
-0.06557245521067602
-0.03286402611061567
-0.03383245200961748
-0.062155096587917215
-0.02890521607906641
-0.04599961919497303
-0.06970343665560993
-0.0011309341826810967
0.023889296799555954
-0.039611733288874906
-0.11964313297744533
0.07176595704297636
0.064024070876556
-0.05837227125201114
-0.0003294809676168835
-0.010565247396977237
-0.04366559851318059
0.03450744022548009
0.03757417405535318
-0.012031130587311246
0.005346626090337725
0.10594460889600649
-0.003399049348095182
-0.04136365577894353
0.0061111697157580315
-0.027585776634607664
-0.02567717939673162
0.08184137129386578
0.07954342829812956
0.018674404052943253
0.06085656757833792
-0.030868414632197416
0.006910652754017323
-0.0505492048937538
0.04478287287365974
0.003432568876406066
-0.05191072639164512
-0.08885000900801993
0.02779382516235845
0.050785818926222796
-0.021055308543847247
0.023835333801008583
0.0029975346261429153
0.031660746423755416
-0.02150900186807478
-0.01303426270990189
0.05654798667281909
0.013473004504721964
-0.028437055418707932
0.08345498826909481
0.03696680435317433
0.0017663720011565948
-0.050440859315341535
-0.0033281143967869697
-0.010732327959958
0.06322072995695598
0.010612724680670876
0.07208549517231903
-0.02767924107261381
-0.04027489212832474
0.06808100894832607
0.05317993623564546
-0.0153061254957887
-0.07433593066949272
0.0045568416747924665
-0.012398433801225787
-0.07005215905601733
-0.16209054670989442
0.041414054408014885
0.01871338994495919
0.02314054389724248
0.12334163552720495
0.010867686512310949
-0.02864445648420573
-0.0192958112740675
0.025349217746757566
-0.012840493742886075
0.1063890569372008
0.034127233219743446
-0.006138628568964657
0.04706467544584689
-0.10758197351073036
-0.026823208061226667
-0.05594709450929353
0.019652811934657306
0.006530735231956278
0.014304533686227708
0.06255712852002897
-0.04417641157052816
-0.019873601682742822
0.020291708140029827
-0.12059448562182583
0.00826130986794563
0.0778882637802073
-0.008763901773033211
-0.007424231251391077
-0.017270551111959142
-0.06836760156416528
0.042299334922767724
0.027496102008527742
-0.05993500964189922
-0.008131065201432404
0.022000183139371212
0.025870416165288252
-0.0590184917197406
0.05626341728194348
0.0027835279932356813
0.030705546351318943
-0.05631128034302209
0.034378323040713844
0.012473189538169584
-0.04292272617742746
-0.04783760906400497
0.130158536255826
-0.007462954397596352
0.03855961879246758
0.00424626539945185
0.02280101140459366
0.46739674306016776
1.013467830187428
0.5685743804920688
0.13630917939993475
-0.01640669855049613
-0.03179719245585302
-0.019927842593481127
-0.020630475464711362
-0.046603811770500846
0.02349940018780146
-0.0849583043652214
-0.012162073041886717
-0.023314802989523663
-0.06652022572705384
0.06157075476297385
-0.04051205345558621
-0.04937570007758064
-0.004000552478784087
0.03320401583279108
0.055401048914072826
-0.01267971211042756
-0.09291907442953856
0.03023617276369868
0.0007287211457188442
0.01555628057699745
-0.0917612614042542
0.023748604721568253
0.02006449866873399
0.027970339949777535
0.08122735539565572
-0.04819410895283971
0.01360037100951738
0.028435760817938832
-0.028013893556384395
0.031367421908883135
-0.027792381916031256
-0.02903011608464054
0.03406403626795547
0.027234551468969873
0.07948880544491516
-0.03244836574807432
0.06289400231317986
0.007891003952859837
-0.01191107666982451
-0.0037895625371856534
0.01636390223545848
-0.08676287110870845
-0.005121564116659913
0.016621569741721444
-0.040817386509991
-0.07615637482686156
-0.06856958302585599
-0.06950148619607559
0.02022196766088362
0.013330349539310504
0.07605680231892717
-0.053194594802626685
0.10389367272738428
0.06111528905145972
0.03258543807348046
0.035074459100034656
0.060475859321336034
-0.009588741892425187
0.08148972561136814
-0.05365575663129847
0.09772137420424339
0.01189174005212772
-0.01821948985695952
0.017053445043870012
-0.11884649584554655
0.007072145624644433
-0.04478523509589666
-0.05164665653536617
-0.04396448298001504
0.0008366673187084248
-0.01819946491831772
-0.021893901243725332
0.04631309945967314
-0.02173536691530293
0.018312774632815006
0.010593425505933578
0.054663454394587335
-0.006616430186285948
-0.00845679282558644
0.029330796102147783
0.03563065533060988
-0.018618684136944997
0.06412241662966314
0.01512204663903826
-0.030507439658526498
-0.0786731335718918
-0.010469742328253928
-0.02707064484796128
0.0022562621474101147
-0.04375635222135496
0.0946891477972582
0.118815552696923
0.07001126885666423
-0.04018103979033295
-0.0023275433164222964
0.039678241960458945
0.058201291425651815
0.09170405143908744
-0.14185518720638637
0.06673228823186071
-0.004381984199681613
-0.023926964012057853
0.009605904052734553
-0.03625524215639474
0.028294635252496904
0.01183181921983595
-0.050890907847427114
0.0021233004517713576
0.11858735320895514
-0.01882842118060992
0.07307774577404294
-0.07744104590989426
0.020787617909275344
-0.024134446994440967
-0.019809809864315887
-0.0008895834229983651
-0.06027795133979988
-0.0434952327919992
-0.017707974524341214
-0.01514913237480364
0.030047240968773793
-0.02199382531975714
0.03766960771637932
-0.002702340155123812
0.010638783004500482
-0.010749623555864868
0.1462839089870914
-0.025201448315249203
-0.020126649736148142
0.015748594048251883
-0.045977359827535404
-0.017021582699847156
-0.056375168026237724
0.030178141604995767
0.00709402491454551
-0.0427817328149625
0.020128766739125142
0.038868751713307996
-0.04754095825529661
-0.018167082616026724
0.06283578473947343
0.05645489108617774
-0.08380849838606716
0.026898411700054272
0.023603160459132095
0.04487613715494933
0.0411859265662014
-0.08879235489519553
0.009203049819100981
-0.20148526720658883
-0.02881238285089854
0.028366518548002817
-0.02804829978499229
-0.13213492715778588
-0.0018418751643807744
-0.026144537232101257
0.015379519393810187
-0.06473789466975527
0.013030897124128022
-0.029637996286000667
-0.029101778870220713
-0.0036218627862141836
0.06762070492639671
0.08473056836295695
-0.05079482272877472
-0.05017932798694962
0.06341362958790163
0.05810060503728022
-0.011275003953721687
0.037396704759789866
-0.044305299196938264
0.01515272771033635
-0.010577584165908874
0.05946067662068249
-0.0008785739397682533
0.025506675670056097
-0.058336090325584705
0.020184376696545218
-0.014473120386135874
0.005696164830678463
0.028913180938482753
0.0783402023630872
-0.06669449539426413
0.05750949593643428
0.05727175459303951
-0.02420911602020115
-0.12811552068942364
0.07312058760636544
0.00982554392053629
-0.06857336146353607
-0.07580945849237918
0.03624781481226373
-0.02576361184162806
-0.004987287910448352
-0.0516899663926183
0.0652100137290224
-0.04636639063454129
0.0022812361298690893
0.009191277821337222
-0.006735239996791748
-0.03466687039634772
0.01297503279094456
0.07718477263902747
0.5684960828724159
1.0018796249598227
0.4385015130325123
0.1225518032847093
0.030479220695700637
-0.01216572692794525
0.10412808607991025
-0.1386110383811827
-0.03889152499206852
0.023561398237038827
0.06286458124875775
-0.023614866780989955
0.010917111005635548
-0.023358899225278534
-0.06112875675144896
0.02788179277448305
0.08708554788486506
0.0030043482747247174
-0.03866019257504551
-0.07322468776795941
-0.07911019885487669
-0.11001175813031708
0.02282332245418088
-0.018668870725593638
0.0758450152453531
-0.06073482064341401
-0.06835643169043379
0.06840891522534857
-0.022548263583497666
-0.008865502988233335
0.015422291168325733
0.03625554869043175
0.009409372002465746
-0.001412585152317159
0.006891758537774451
-0.012968223711638924
0.0817651542102163
-0.044892046547685936
0.054432152341168896
0.10540320266731402
0.002257775688780631
0.06301198172716548
0.022824151182826994
-0.043714426955520476
-0.050187682024092864
0.022212072810151806
-0.08885471243737265
-0.032357268833855354
0.038297968125006826
0.05018190190485716
0.053313422357939524
0.015035577381124413
0.005956217184674886
0.010138153330548029
-0.03988231525206429
0.030587802674768655
0.0023733560981130638
-0.016262170031181227
0.030260700908837562
-0.06096378755848397
0.0176130940104133
-0.04328144018690211
0.02608820417897366
-0.04155516893266224
0.009843439293931645
-0.06331673431831535
0.008173678318317048
0.12298097586128526
0.07574477384844952
0.07528780987395127
0.010489238938452407
-0.042620957533974435
0.004391594252427348
0.06284363120122595
0.001012363546031
-0.006591094635197885
-0.01727231214721499
-0.042315159478885755
0.022994571072971006
0.00644536249045461
-0.13880806902578335
-0.06885082804911362
0.02922091527279542
-0.005698543520580648
-0.0020345098096315258
0.02032990683697948
-0.09962884364257547
0.049100120556762716
0.06023876408141993
0.03332269798135582
0.04783221912838394
-0.01823161189845791
0.024680109791262016
0.009597372550184492
-0.03962177429993832
0.023142661654867697
-0.011921659835120953
0.025431446002065997
0.06790347376452617
-0.0718038016666948
0.034086503229213826
-0.0354079503565655
0.01884680102004334
-0.06764304607582
-0.005014382141161314
0.04277287026392057
0.04048076370663579
-0.009536150954453024
0.08521365943761128
0.044388729781674005
0.012239170008848943
0.10445171392754993
0.032051869380968843
0.03571945875296846
0.04814817368466099
0.0584953670346674
-0.09799185953529077
-0.026294412334568414
-0.044434918165079156
0.016252555481279473
0.0030836758644470753
-0.08521259103718833
-0.06069500094758004
-0.022898775543597958
0.01112552391083877
0.04858330414884908
0.010924692106977253
-0.02804416483034109
-0.013710126251550415
0.010587875885519071
0.03179825967981208
-0.10368371705816287
0.058030690010560076
-0.0076739692420128335
0.03523053703433278
0.04322563513483288
-0.006633090940086628
0.02296828288255385
-0.018470605450702303
0.06432796477016531
-0.013994824247183256
-0.033365957007847474
-0.05138380394003879
0.015186200786841846
-0.11187986178679231
-0.02119329071421037
0.052148989708016326
-0.019371476567183004
-0.013359515915923196
0.03997826438959515
-0.023758059011583472
-0.05481682271652877
-0.031043255025751695
0.07250228530077782
-0.06808634416970642
-0.020240146765209063
-0.04149792722993422
0.020476486473678918
-0.004497723697040711
-0.046269685019751594
0.04280499857871761
-0.03745800596249249
-0.09836240373866345
0.012395180166778206
-0.08948087155366165
0.015118719767009634
0.009128261627724931
0.0398135730856076
-0.0688798639217599
-0.10080262299404714
0.04387562663003941
-0.01583365094384553
-0.05215757484380921
0.002685815400756213
-0.03971511063864329
0.020817020614715152
0.031534901192473944
-0.05315285437779506
0.01420935439547269
-0.02599635987568465
0.0342900828727721
-0.016276239488795974
-0.007996205420556981
-0.09499846690750285
-0.002982027492654819
-0.0116013642123235
-0.1107018310467898
-0.007398751552966736
0.02190512779900895
-0.025173303514838263
0.0010919636621435204
0.07776914738390875
0.040429016889517104
0.01697157816670637
-0.05992928853684146
0.01956505427338072
-0.06642111061771097
0.08800525082418098
0.08107684416957842
0.01771448689175571
0.026062950313918212
-0.035221300453684865
0.014502016818007994
0.005458396550897528
0.05320667613407585
-0.028204793058689916
-0.005853561580596033
-0.0016487812232322489
-0.08665205268915017
-0.016245302722523346
0.06193419003080991
-0.08837331565938805
0.025227231714429317
0.015190717146199594
0.026631738115862932
0.03329076892687049
-0.048481106012172204
0.009884545397756213
0.012981398461240502
-0.09908243291931534
-0.03393692085991948
0.18634355287951412
0.4946661486718303
0.9760189424744009
0.5132274021958717
0.0728500058190388
-0.12434498039733631
-0.08285210644262843
-0.00815955747750682
-0.010320880316323586
0.038184864622542836
0.024669523028614252
0.06245687524359672
0.007279716932833341
0.014805957098973683
-0.02943965990395253
0.05453861243440721
-0.1281422725046314
-0.02081581483471688
0.022171021669431138
-0.00024698848538179494
-0.09940364298967624
0.004719474779547279
-0.06765393533368443
-0.08956794069645806
0.015000462712772722
-0.01329721737972707
-0.03498614142786646
0.007035112403769072
0.02769349529841454
0.06458128677507621
-0.0016569650070731097
-0.010705665430009722
0.0696399984420354
-0.10324940796110481
0.003145381546970965
-0.038910324225614405
0.049725245418529844
0.01484929215698016
-0.013903608145549404
0.037836914457293265
-0.0503955837149071
-0.006851710921130855
0.07290929972587946
0.060897284800458876
0.0016431665071849875
-0.03531597770491407
0.05207683979834524
-0.08015148225814561
-0.05613466476333811
0.09140863783854292
0.010027559533923251
-0.0107535067964268
-0.05579938658382275
-0.0032637515718811003
-0.1020411420210956
-0.052161004960107255
-0.004233140292387209
-0.017986013714113708
-0.04162709330432589
-0.002661677638789937
-0.051527629045281034
0.014249158716647049
-0.04973272791731921
0.06818736124481388
-0.05669266779466456
-0.0454066800264098
-0.029758826426695813
0.015767585373714
-0.02784667948706059
-0.010740415905573543
-0.01302451333791379
0.029088839538410845
-0.026793826590851385
-0.036522163417268126
-0.05365080890572668
-0.005453547021050382
-0.024233604815926516
-0.015965148467485295
-0.06574428893118422
0.04091718463064109
0.06896145009670222
0.08797010464702175
-0.006171353126934341
-0.056913565242332355
0.0010738019721573582
0.019295627504744353
-0.008696931251216641
0.0272869949832113
0.046642487364780605
-0.024148626889493815
0.012350601959515166
-0.0009691319475136688
-0.0041639526560961855
0.0021981562839746387
0.06981028232886108
-0.013454915860433698
0.012747606695820769
-0.07706606823134245
0.009383752834828982
0.06830482195629599
0.039564524590824504
0.023035369149632456
0.009653757876075947
-0.019209530403568327
0.05815755225197208
0.043734754428279614
0.04282099758501172
-0.0735118250880795
-0.045044697057763386
-0.041691732166982215
-0.019220249639546404
-0.12559541791238596
0.056530365094195234
0.09556681956400619
-0.04759363638840562
0.023075467679013292
0.026129144071244587
-0.029865378740462824
-0.05323852955661447
-0.005033706871566535
-0.036416912279372236
-0.04555587962017034
0.0033363789872049676
-0.07388634548211459
-0.006348040798293571
0.011731110499916979
0.008055000126975848
-0.028315680534893868
-0.164432965960776
-0.00283982357737806
0.01207208637037382
-0.013666047211039235
0.02955772714836081
0.004360886287227949
0.01711858312128733
0.045459232178223286
-0.024993788568220487
-0.05421128374228245
-0.047261408646986025
-0.033345448562886175
-0.07439799354704067
-0.013349885641498822
0.010647826578303833
-0.11831406359615929
-0.033005877832989354
-0.041432760881703674
-0.06316191394383348
0.05911863158466655
0.06537848650496052
0.0208908159739122
0.08536314311881935
0.02139684010438217
0.022400078020407756
-0.06945781843679492
-0.0033114611046343116
-0.021728068427665892
0.02881651012511185
-0.011856911645583657
0.1291434769961865
0.05239201040621914
0.06360384054943723
0.05017748778691472
-0.009413519496496952
0.05303870500052102
0.01117069858428116
0.0443413123024858
-0.0012146211006610922
-0.04918387196848359
0.027917485322280833
0.02276825192630479
0.014510724773064513
-0.08638166358433497
0.028499877795218287
-0.03868255130061625
-0.0070692890074342376
0.011207711407228977
0.058666018335814855
-0.011551822097763082
0.03946626575440408
0.019976295623165656
-0.08770020220582636
0.05234445687791062
0.02396287865967002
0.030772252773784627
0.0475951622497839
-0.02747810910658684
-0.041753748738865726
0.04807726836417361
-0.11300034105990575
-0.008998982078958752
-0.02384420875201024
0.05842727669914149
-0.0021957055905320686
0.010153336565830517
-0.012065017606872355
-0.024219894704614525
0.09152307943263248
0.07464173626691607
-0.02833860918025586
0.04556013517706145
-0.009310117433021991
0.005207510063337168
-0.0034635019240367945
0.02706010616595693
0.44620166898179014
1.0048012264940533
0.450792418380013
0.09591673272341247
0.06308456554704962
-0.012185494429676523
0.048219257870405624
-0.0016903445529192042
-0.03351348538736246
0.011854093461589471
0.013579638000021847
-0.06702905922522841
0.02457262043620817
0.08579231417621791
0.04266265255570594
-0.09678397817441643
0.11969122454263106
0.05362060555974044
-0.00424844643016571
-0.02837424465043341
0.04223503685656304
0.07818172930021142
0.0021718355256273737
-0.03668151511077571
-0.00268294144691437
-0.05958944598509386
0.04494905381512966
0.04182797054160081
0.025118268656304756
0.022637099049870716
0.03980470637915759
-0.0011403027417986634
-0.06203439220385472
-0.02942804552124306
0.019639754907330012
-0.007815233893978165
-0.05332338677412743
-0.0247739282709477
-0.05801212816646542
0.008209817011311973
-0.026112320245379874
-0.0871029488807697
0.03297743936895659
0.03685892456103355
-0.11168445636729894
0.05789835620814598
-0.0070202786500649615
0.0358390844301528
0.04396744247405567
0.10239246439078507
0.008226224340881836
-0.05570030026717672
-0.013879659869663899
-0.01904512370619891
-0.0034265988527370107
0.0004160802944632958
0.04092786082135297
-0.03995562238723027
-0.04169958767927231
0.017067429236608023
-0.0105394168174954
0.011942945101146293
0.039877006046634085
-0.027204584508187853
-0.037475390005057965
-0.048450547701437696
-0.04193070667399357
-0.0516966786291159
0.037538718792060666
0.018496191224230057
-0.16275590062333548
-0.08185820851532395
0.0012248384790104856
-0.048528802755458844
0.0023988681232966123
-0.010837474481494566
0.01638319923022415
-0.1438683809031491
-0.030635205769896874
0.026106041942487147
-0.060181916517131506
0.019717761453502677
0.004062779356529679
-0.027576770071501527
0.001593820363169641
-0.0035597475344957053
-0.047426771665197986
0.0547778848127434
-0.014780709479678456
0.04166548964995361
0.030439759997490476
0.022381546142406863
0.03131916809682316
-0.03162672867295429
-0.0022823489962826566
0.03156654291363794
-0.020499793927730128
-0.031567231432968156
-0.02527682242906014
0.0949081782403276
0.020813013816614753
-0.031414371230664845
0.05105211459260174
0.017826860392967308
-0.06902613592522729
0.008892763058065948
0.05085044795524995
-0.04857595285999347
0.0017391280321054907
-0.033867749278671054
-0.06446379071712877
0.030828133261701002
0.005880374496629392
0.05717614042299112
-0.10451730473156351
0.021922976942091527
-0.06550171729000896
-0.008296157958575788
0.051078223562460494
0.0003012793549673682
0.014310972855430652
0.02645381555250932
