ecg
-0.04569317293769963
-0.03622769194149924
0.007147795105917315
0.5409228080304511
1.0566713604863796
0.41321446875235884
0.12022599384755277
0.07103705584186785
-0.020225297531987346
-0.09752919508586566
-0.08125059006503484
0.020488458979551708
0.023288842761625673
0.06912823700652207
-0.04883676623373306
-0.03424305516180899
-0.004871563714095178
-0.035907446473497105
-0.045989882788452216
0.10368824486003203
-0.041206895044362174
0.08100539008441175
0.08523296158213582
-0.021178901006054324
-0.05549963119531168
-0.05618525968635051
-0.15730176047319333
0.04664372027465478
0.0578387697246238
0.005710745197208986
-0.019421866166166965
0.006995260699892216
-0.036476994654521026
-0.10442019309328976
-0.026926959309703957
-0.009604934545609026
0.001641301155332917
-0.017235629283154856
-0.057653355849183775
0.04115148889755235
0.08111635727255097
0.08965317931029285
0.0015744157363925722
-0.016902018863325492
-0.10225620349418321
-0.13312322498107984
-0.0903692962738461
0.053508213005238905
-0.06294884052993908
0.009942284733451281
-0.03492361307674119
0.026817111493630183
0.0478874625973174
0.0015796549866498848
0.00970093690500521
-0.009938766167844726
0.06612802033724006
0.06819082003571361
0.033450257784187025
-0.008980136419815722
-0.04822342031825217
-0.005803356369128816
-0.0805665570852738
0.023428472769133613
0.010852513026205964
-0.009667329822343711
0.0873528392658207
0.04187639692533954
-0.04526880452770074
-0.008870895147324035
-0.05360026919387274
0.0053788894566213045
-0.015117414012892575
0.02125652357484355
-0.08172760248243123
-0.051639292594778355
-0.026562778607254863
-0.025376657541198056
0.04075738013444963
0.05280658679258013
-0.03760907384269793
-0.011753659830423412
0.023656637059456195
-0.03337831930785362
0.0028456280882753573
0.017877467743532827
-0.030297780727117387
0.017664790669474427
-0.04775998519892383
0.036548662352809534
0.07869634380410578
0.012224654766731312
-0.029430640759227772
0.04688529364951287
0.018838348337066043
0.015536798054763518
0.09896228246753211
0.006211841371098165
-0.022207241172935727
0.031478398692863944
0.05267092058434989
0.014255492555767708
-0.0582094437497303
-0.05850052907770186
-0.005526952732777049
0.012856699516527915
0.008747745304040383
0.07015502065352007
-0.006668428178543508
0.07662474088802065
-0.024307228433471287
-0.021521593672326454
0.028212223246901272
0.09569545328857315
-0.00990410099123398
-0.017435803561344602
0.03410557517789903
0.03937600529930142
-0.0013092493848350915
-0.05515126410129875
-0.037497923402241465
0.09147010100080594
-0.07329839519542082
0.024514305677734854
0.036589857822735695
0.11627771639066678
0.022921555638823882
0.033925904694538246
0.06723726179783705
-0.04856834514369724
-0.0015892210985784137
-0.12998765721453337
-0.05141374829654593
0.0072165728979281685
0.061306219236363806
-0.03501203948851229
-0.022349833161220634
-0.03717041975896437
-0.004297813950445437
0.10117031485395717
0.04937793406672825
-0.04699575078231776
-0.019219586460369073
0.05513734225752187
-0.043705180710253456
0.06611888612936172
0.05813244890954519
0.011112822859449381
0.028305649550140106
0.0020355071673297336
-0.06384392071502175
0.045531618783644943
0.030356564169505818
0.02222512733458315
0.05763364020761176
0.00462885053482246
0.0020432075496964407
0.05099080629725611
0.023548884554141825
0.08364781432524875
0.005747016489401112
-0.041787333815904534
0.018224771612495607
0.011551770216831722
-0.05903611960243382
0.11562748581303917
0.00415960058787982
0.003536915484972235
0.002350787211622146
0.04460662582692915
-0.07492998096207124
-0.007666971660128122
-0.02490430450386645
-0.027796150475632737
-0.01818780992188022
-0.0667608813521257
-0.015545471197453612
-0.023780246439546168
0.08915533727633379
0.034316330029098105
0.04758186468068241
0.045026083074324375
-0.0267854725296474
0.0687072246282558
0.04211357002150006
0.011380495416679891
-0.024881749485990735
0.06413539772716913
0.0423162992139788
0.03723276553247036
0.033539876980501496
0.08686292195243615
-0.07194730343618409
0.06411811629447262
0.06504672178776909
-0.06613272654461894
-0.1213354603703007
0.031043576978961103
0.0021844905570303627
-0.01970524681426664
0.058158377980568554
0.020785890907561094
0.17417992860652537
0.5056175448264845
1.0398698399919253
0.42376833203637077
0.10842158409832449
-0.050474164037218855
-0.027987769260848706
0.04347535872133714
0.03383140692544584
-0.032475924226481594
0.06881410440604306
-0.006611513735358785
-0.006214034336436698
-0.04692649028427295
-0.021931315305300125
0.02148432730958147
0.07675513289189573
0.0016730052143685528
-0.01206914090925796
-0.027709099303686088
-0.10650270536971547
0.037721276055093386
0.04978349944057415
0.06455420246552475
-0.017959340900634245
0.10362429421949454
-0.02472921149143065
-0.012043728431655083
0.01587671629102245
0.014558192950111667
-0.027156345637399534
-0.00809159757943353
-0.029039813737739464
-0.0358057542084096
0.004882531886645843
-0.08182443591143657
0.07242832022730222
-0.0450518406745177
-0.03678906080826577
0.05819815793322637
0.05528183557219273
0.05023273000992393
0.04988079643358403
0.010664891058356829
0.10949606658254113
0.025649918281512307
-0.054105647731288335
0.005569604086885307
-0.008077984728914194
0.018837582791259702
0.0621766534613767
-0.03902994297612333
-0.020697611299782648
-0.08865187833141289
0.04437378999331618
-0.012043446758754309
-0.0927048652822669
0.019858667024087038
-0.057049704755992574
-0.05508508954539024
-0.0009021302435564967
0.01728318091694452
-0.038951682618221566
0.11950052363465223
-0.035166671429373804
0.06005461745729538
-0.05408910202094924
0.03021763707500318
-0.026513876643954343
-0.04392850454798977
0.02752601658500547
-0.05101364134042691
-0.047401789734185566
0.007646564680319189
0.08179699265374744
-0.019423823607295904
0.017707175000337402
0.01678434971334678
0.011392854224641546
0.00819172520550712
-0.04959728106004492
0.1384608770600918
0.027040364668703465
0.014019872052152575
0.08277278632080215
0.017166935995316726
-0.039860029306915595
-0.028763932798224503
-0.0015111826307998733
0.06621868527101983
0.0051136424273288475
-0.009077473314232377
0.0018384612617731871
-0.024920623661425233
-0.03335426914031351
0.024006634843477544
-0.03189004607068235
0.024908327704353528
-0.04125505525605585
0.004903301427742216
0.03000819403442503
-0.02827379964176865
-0.025176213166149198
0.09969271967126903
-0.0003170345631386013
0.04799726510882275
0.0130905020813237
-0.11128218227915071
0.053154561109945375
0.00015289975958135464
-0.005547842280034979
0.09355300249168119
-0.026735434006140438
0.07481141269210788
-0.06879935039437723
0.0610091870701808
-0.03166297594314711
0.035382220453140316
0.013397344260602587
-0.06022658238618955
-0.018496540488491437
-0.016205849207591622
-0.013442045647705174
0.026584931081897353
0.004648827785499938
-0.022338375378722075
0.04858146451286393
-0.013612514596780315
-0.037873222405070406
0.05844620272686623
0.03318272517004211
-0.07210987306144101
0.015113217084091139
-0.032074851858027636
-0.037791090319726967
-0.07330362986979888
0.02754680489033683
-0.019796938132155526
-0.015407249653679695
-0.01348251420428315
-0.07400741713650474
0.012152728359850418
0.059685708722446384
-0.0034772277153059593
-0.028483971963156437
0.022937821985813418
0.04136351650987369
-0.03484764979383491
0.002214149437700935
-0.062226208597900214
-0.06593560861261367
-0.010015329105649631
0.0035386173698294244
-0.013118036267864905
0.00010783284111644226
-0.004538885544132915
0.0172384655809947
-0.0019026280446864951
-0.0835235936544433
0.04819141524147247
-0.05410898336644104
0.029939827033922728
-0.06756439102038826
-0.008500377021304916
-0.02595392209822251
0.029062137090795023
-0.10889318966597349
0.01822253896715628
-0.03860951464642747
-0.054609468834164
-0.07422718636292533
-0.018123406759875078
0.00868549513427475
0.013749257888502554
-0.02300719739884332
-0.011781147552723806
-0.031097592400098975
0.0123353061534555
0.13048750246737426
0.023093589733847245
-0.039022376903443706
0.02652824260459378
-0.009566863624780967
-0.005662179214984579
0.025876821870346258
0.0006714320194572805
-0.0672881875612486
0.011715790510804791
0.006355501772675815
0.04598543331094212
-0.01264185780071492
0.028755751123623816
-0.051039282089484696
-0.0020605554639411858
-0.01830415419610811
-0.04572780878458686
0.0462143040238657
-0.09487294777151789
-0.049956183289153626
0.0022793291451676813
0.060771756657005696
0.1124869630223066
0.01744891919963153
0.09496591206247885
-0.022972811204357062
-0.035601446883481415
-0.09132909751883186
0.04950242262720461
-0.046923549216721976
0.024439039132533216
0.0380510730105545
-0.08447520877324154
0.022410960095910374
0.16460223712127214
0.47094648703781034
0.9249651585164649
0.5348405213210616
0.09633858993075302
0.010076743880275208
-0.004002169786877997
-0.03587733546189743
-0.01698675928558008
-0.023446305869069137
-0.025598198689465692
-0.0424153936283461
-0.07069337328673189
0.05989736484452266
0.08995862477206146
-0.005329761862264988
-0.023605838108374157
-0.005597711035687483
0.00647387007830652
0.0031754248205734174
0.037013433788880744
-0.07796278865725592
0.007870153449487207
0.018187578060975932
-0.0706176474315621
-0.024354641028662638
-0.007732691642486878
-0.14026592668738497
-0.003608479387722924
-0.021999351341890135
-0.10977304871676015
0.014965657619222993
0.020942186561257056
-0.007651448844557517
-0.03220243695164127
0.05099262647250154
0.08626004851762209
-0.0104475590931291
-0.015598921060362848
0.06294033965166891
0.03045150706921599
-0.0009252634098701408
0.02711789996126266
-0.115086047159745
0.041866064078901616
0.021886080990950345
-0.021685449715899703
0.04387128194352725
-0.004362868886689185
-0.00021987211547582565
0.11605942835597205
0.04727752211576542
0.0006588337862356956
0.026645882082696117
-0.04326385942560741
0.10938112207487116
-0.04059928933990417
-0.020613435243791847
0.0641498416159607
0.02424600107717905
-0.04731946644297505
-0.028074807923727286
0.048591467632354
-0.0023857561473139533
-0.044685470320713856
0.010647363217737611
-0.11622760160067612
-0.0449557548801059
-0.007485364003992053
0.029356622952458545
0.062439743309507426
0.06248537747492072
0.05768725091128557
-0.07318459651723207
-0.010958366631195973
0.08919252699270516
-0.0403804375103142
-0.009274843006239568
-0.010405674826244087
0.0021480470472587943
-0.05137268902127116
0.01817903986813929
0.13592717982557836
0.0721555988653414
0.0015051967471236814
0.07354789620681315
0.0756187086494621
-0.04028146362456877
-0.030592260776791252
-0.015832711522626042
0.03926958125092332
-0.00856805185090924
-0.03233610733560957
-0.018482784349630084
-0.0037173487941980195
-0.00430696434981269
-0.02800294926251752
-0.0010593699252267952
0.016635008140508667
0.011234748326823113
0.02723464152806948
-0.022785188652431145
0.02718304719576092
0.004829154351198428
-0.003467124033005269
-0.04422047344284338
0.011504293265062243
-0.12827574426900934
0.07795803511378396
-0.06761156032860353
-0.13587344074764882
0.03701250270730484
0.0447135662220548
0.061711880531786806
-0.012020377165672185
-0.08611895946674497
0.012510351734152278
0.017499565025967917
0.02806430408494891
-0.04105019246155839
-0.0351882279727392
-0.037898921154307486
-0.0007076136824686999
0.029419570832516135
0.08492069995882302
-0.012327381172120226
-0.01319039770642566
-0.02717533099943796
-0.051945361807098404
0.00768686537925542
-0.05708683366574424
0.05294321714564855
0.07539931513799525
-0.0068224853015358125
0.021183565169915666
0.02742610180601712
-0.02580674975393421
-0.015612175493560164
0.04129535932515038
-0.0005782959722014729
0.010186042861968106
-0.012196790099627847
-0.040934892824705846
0.03163064353666483
-0.015027882704281412
-0.12316731523307126
0.07411264432437463
0.04074767430627893
0.026681920140329107
-0.09699623147093084
0.03544170527869285
0.09367748761336084
-0.029770181303173094
0.04363754592511505
-0.02486594816097867
-0.029512904793104713
-0.02095379760729494
0.0360448279718707
-0.004579722739831442
0.04197126831684411
-0.057074712909979654
0.04179332054877558
-0.02202015548447038
-0.018542919861607936
-0.0666560840602585
-0.008567269961557118
-0.019820229194670705
-0.0022084643469285187
-0.026177036811646705
-0.0034296276033905903
0.0029443551886279297
-0.006496291043716219
0.15475583605458698
0.013678777896686254
0.05520739272441726
0.08990776015892069
0.01432332389672564
-0.09428931944529342
0.008505531698655975
-0.027614023513072294
-0.0479233813935191
0.062005204045017075
0.013168413253974692
-0.017683147671319444
0.04593493677634231
-0.07653636024170335
0.014763576056284623
0.08255802220712238
0.05411636434241769
-0.03956801907458837
0.04217252380180778
-0.040107900131385675
0.006478966637613718
-0.04620356463190193
0.012608279913816248
0.006955489917736409
-0.0053251030373630895
-0.0033893106920005033
0.05168019688520531
-0.006300429629102095
-0.08652657457630157
0.033513927752969984
0.009441777737627685
0.041459784808525704
0.3942588350624969
1.0090721527792674
0.5451042037199811
0.04255576552551278
0.052762929496791955
-0.02412765199115235
-0.07570532240822878
-0.004587632379646814
0.026484455404574003
-0.06514888398912831
0.02591157848586813
0.01239231757686016
-0.037654578299646024
-0.08198296005788615
0.005759429702637543
0.09489138528764585
-0.10529431383894577
-0.10612556383115333
-0.02909200327095592
0.01485275603534339
0.026593289732528187
0.09125852957293651
0.055264917745912016
0.0884371999955379
0.0003372625449134211
0.05071437994303312
-0.013842755363503016
0.054252198117409195
0.1130884541042936
0.015199152396466763
-0.025475079909767898
0.053766451716014046
0.004238479784328725
0.06149071737106948
0.02764553988507848
-0.08410963987767713
0.005856319770590824
-0.07435892205116523
0.016946229820844757
-0.06697771590412362
0.018510808597644052
-0.0012788616284205231
0.019240267714753883
-0.06371468945657362
-0.0011537847070228016
0.08882888750413065
-0.1126290931304601
0.044175870801173085
0.005621037458538381
0.05271491040386807
-0.001623100522510763
0.031802993210016554
-0.07797565873215533
0.06731512885150724
0.01239564860709603
-0.036841620034699825
0.05399768586332378
0.011114548933899631
0.022289391450456046
0.08878277772983885
0.01791620947410237
-0.07251886893186706
-0.0668910532965722
-0.05506411982920012
0.0057106134029091295
-0.0375151639857747
-0.018115101485640852
0.004149727649310013
-0.010692442165420861
-0.11927999483319468
-0.01455384977981837
-0.046254058709887344
-0.00918044588851649
0.04926196419295856
0.041617282490413944
0.06054706582091517
-0.0518526556956258
0.061416543118764336
0.04540419262531034
-0.022557168228755652
-0.09651256277540099
0.0036062154801677435
0.001264587014583003
0.027335996083407615
0.023116702017453212
0.06161749681402409
-0.0889458643880332
0.10899140750642229
-0.04534834111726066
0.028966297439466077
-0.043017309118967784
0.04135378958464183
-0.0506978788149062
0.07275943610023873
0.040684142910748865
-0.01453134993673824
0.04111903797638555
0.03436754562592234
0.047557087308302146
0.07483542686925043
-0.0832806963074372
0.030290827030218473
-0.011197678720432556
0.051074697599253864
-0.02283635927648039
-0.07938269265243059
0.0400588734522097
-0.0014100568078446512
0.07068895334527574
0.042756037365668506
-0.006939137288236589
-0.05585150701587075
0.07142802402917878
-0.13044663686320068
-0.08347057533516629
-0.07914080202978385
0.10434581527814657
-0.010730492278118908
0.02964464324345403
-0.06917123516309293
-0.09216322164721161
-0.0035650915011883294
0.030803528329109917
0.027776472633063733
-0.027609637047008313
-0.06926035873173288
-0.042643493228357185
0.0032493877740956433
0.09605952164567427
-0.024393101747737178
0.1006921059222558
0.021215535110043062
0.045538878554798434
0.022642675120289956
0.02760989959811056
0.03230951613284883
0.06777570908653542
0.0693700194873856
0.041438150495043735
0.027879297754295998
0.054333803579997786
0.04293862820637896
0.10743970768446345
-0.03598773189992346
-0.053100305014335415
0.02910981806140628
0.004169577498583025
0.03047680102543082
0.008257942003807505
0.06979664557235406
-0.04183677917868181
0.08219431873036004
0.03327786401410186
0.09322725988884274
-0.0050567347702520846
-0.021018160537558506
0.0027164823705412727
-0.011011703594600427
0.013908113380524934
-0.05543613392033952
0.022245851560844878
-0.033713828138862985
-0.10431829634985652
0.026436458383989187
-0.004800233340697693
-0.058437843949348804
0.0046523359733671886
-0.05710944947826339
-0.023868677463676626
0.029678663884001606
-0.034370071907725536
0.01975695791836433
-0.036037633301432725
0.006850660722287613
-0.1349822597307388
-0.09237002163481539
-0.02194803745230147
0.05160947183915441
0.021581923020858415
-0.05530347551814921
-0.09145166700942939
0.0044340517013761694
0.006005352565489911
-0.026146787158883095
0.024085975273059293
0.010136993155816697
0.023236574855073217
0.04727340759825316
0.049830392383748486
-0.021725401038334938
0.028693799439178713
0.03878552899552942
0.02206654004561487
0.022928506009875487
-0.06798670113851728
0.0550630156667824
0.00582030165943613
-0.02287824824034669
-0.06308063118530514
0.009317833038321057
-0.07379475916455018
-0.07341556112331432
0.018001191205149515
-0.04348192770327222
-0.01874429245109707
0.043559199136529975
0.039891959051453936
0.009767711559014557
0.030890248556381623
0.042722679381254985
-0.004558334438266711
0.019683568710774854
-0.09265361899722117
0.12083152492717604
0.5336955715429469
0.9776039721910016
0.547815341984519
0.07492005329925909
0.04825334437638917
-0.02577262559144225
-0.03827548310594858
-0.0010307186994898355
-0.05468450965772739
-0.002109208241872148
-0.0885718002405283
0.06362429874274032
0.048569867604428295
-0.011119635440103567
-0.04978320736404207
0.10322951930271809
0.10837442385962329
-0.0011606195299600755
-0.03991365344854198
-0.02558114335652771
0.004992071942092615
0.06442158909532071
0.038847377623233106
0.04898241240571337
-0.023063902538337344
0.03281114695906856
-0.08266631706771388
0.04628171493965402
0.014894302722164219
0.02922348645804451
-0.017552105013887296
-0.1064747314640764
0.034574155761753135
-0.08013478598499962
0.016591923038783388
0.02507852659879575
0.010450514253440247
-0.03953860538004399
0.06490147235053555
-0.06160973746264201
0.06013509539059151
-0.016371992615620636
0.0015054974082037733
0.11983434194136758
-0.09082480205930228
-0.07381700407637426
-0.09013034632487582
0.031729817882952406
0.0014147413087963639
0.04839826771728275
-0.04439675096489569
-0.050857161758280194
-0.05504208800590188
0.005684420378851154
0.07100422033841412
-0.02679620567254642
0.023522388853480507
0.059506748242209785
-0.058985223439152246
0.04087574350149884
0.09661608124799176
0.008184061521223076
-0.0663720025174145
-0.03940654468284623
0.007923031326287326
-0.06084827166379957
-0.03744280441635899
-0.0343762613128595
0.004154428947427108
-0.03269532446988291
-0.07996533625535421
-0.022389257515471075
-0.011967034159351256
-0.06264699989778667
-0.017679857190032452
-0.016899550719633477
-0.05125435913133393
-0.016761885847281954
-0.04059920644257249
0.04025286439272637
-0.048548247468329656
-0.07478103420181417
0.008089664068110904
-0.13624909087739753
-0.04989452080982609
-0.04599987382809546
0.012764959374296428
-0.01867299478611764
-0.01278865888072581
-0.04212876528522153
-0.032247142168377894
-0.02332727781222989
0.015219167089604982
0.0488328047745199
-0.03768512399877897
0.04636568566651522
0.05219748242561385
0.005688199233626478
0.039623648823708245
0.11208864583004957
0.04119051712195575
0.12217900398734116
0.0009884537646248912
-0.02671378436428436
0.004692174201430972
-0.07789581847040407
-0.0072923518356355485
0.07231648419998594
0.0027224648517177974
0.019768081059017676
-0.06627985398542573
0.08895165655780057
0.008929983732036434
0.05092025183188277
0.05805398173524411
-0.040055609667120476
-0.01751000991010964
-0.008087605240890533
0.0051773091996368025
-0.03184500538043168
-0.06289319818523809
0.036188918168672445
0.060523507352234246
-0.09611689431092688
0.0275990549131122
0.02669226364276906
0.002920130054724148
-0.0773535864301595
-0.04585043828961151
0.053274769904493924
-0.01274145133989741
0.06421043324073761
-0.04832115987049884
0.0023210417024092603
-0.006558803520252694
0.03748425744827855
-0.02917544251998763
-0.014450106176509806
-0.04530562542619632
0.11655241700588381
-0.031198619183544204
-0.03259615752618285
0.001770776983662897
-0.10983671581328794
0.06486872142818899
-0.03317707538690644
0.0024244203594136287
0.01150926111988461
-0.04983944595812861
0.020031860124708895
0.015754330124393034
0.04355647957312458
0.03423012108986249
0.010615562291347386
-0.024772723188166423
0.04551726994137267
0.01602168534961359
0.05333292095288841
0.002174142916741601
0.02540670253735245
0.011669971060322639
-0.11093774153398983
-0.005345120524192729
0.0798391169133767
-0.04229602846368523
-0.061551049915754344
0.004246098268985288
0.062118403980883044
-0.009007698762832852
0.015545752351933284
0.009976881833133004
-0.018583974575185243
-0.00070948261066205
-0.07700936188604528
-0.02108774119182442
-0.022106177273212384
-0.009789656833646552
0.042606200644105655
0.03019454952877858
-0.017353690966115776
0.030880042637583177
0.004544659543630212
-0.08069618362525036
0.07440653901797627
0.002397625383952803
-0.04983422300872185
-0.008088109487718568
-0.053767855896044284
0.03957380814157222
-0.05124102232636009
0.011237614767858606
-0.02751391323177041
-0.08809037410493986
0.002247764477076707
0.11606623201505112
-0.06845997548177142
-0.04446084227204611
0.022790356989762027
0.0775303924469351
0.07672733956351915
0.058941196454176906
0.021041432642069646
0.049271776866046134
0.08368955211530614
0.5318216267913153
0.9532106778083064
0.5566233223334125
0.07898559180726693
0.026843746331129875
0.023106957785067713
-0.04367515865244909
0.029949540785966056
-0.015960932509999786
-0.0978146370981646
-0.006045469970369744
-0.01334637187886987
-0.020815263786511686
-0.04929268520380248
-0.17340418568588933
0.0014755353496265463
-0.001888673715020832
0.01701879412487537
-0.0171531802287696
0.05493432777393811
-0.051876197524127234
0.1324055225806994
0.026931867939843236
0.04695321456351567
-0.021081120977023214
0.04087908243180205
-0.009489713994656762
-0.06505429524281513
0.05822413781192429
-0.025628640509750545
-0.05067410014498004
-0.044472156269364814
0.0031023031521577485
0.02602564422085987
-0.05406680046437391
-0.006096302942478142
-0.006665430186574509
-0.06501413016684861
0.0256727097928023
-0.025409046457814728
0.02006127122157545
-0.017828472412931274
0.01681562819413153
-0.029780719648240417
0.000585606091057971
0.1041005166317675
-0.004923732041620364
-0.020698047442268823
-0.018676114833477427
-0.02245758612841873
-0.021315025439340725
0.037590641417810475
0.002127377339949684
0.07655219503518501
-0.004301574753419855
-0.006183981557965311
0.030778074627081126
-0.07307871747605144
-0.025316505997956113
0.0364454161615675
-0.09041512448293582
-0.10110619900849656
-0.001051985149889764
-0.016113123903451532
-0.018904863293433334
-0.019780869482195887
-0.00037333002323818677
-0.03631450646287459
0.014498910364534873
-0.013573659867706915
0.028151163592876807
-0.018313345045347814
0.08783469896720161
-0.05636408565414597
-0.02196022779488232
0.028016372889985597
0.0374270099822944
-0.012184141383440305
-0.059299381599114236
0.03749225901702812
-0.04496224767016473
0.02417373404596135
0.023880820147222995
-0.01010306441878818
-0.01473302084177066
0.0004270825289600839
0.005965792008757909
0.07133498306520088
-0.18311926403938972
-0.06642212227918914
0.05059056187212348
0.09157585193060101
-0.0034015346822512723
0.018948693163870368
0.11009955474891896
-0.0780400399723406
-0.02920495968588191
0.06744783531329035
-0.07715438685588152
0.0205677051161966
0.08842904024786011
0.025546559954578912
-0.05259420686152068
-0.031305493906499775
0.07377741357404126
0.005484972917853654
0.07158738979735706
0.04843412622420854
-0.005855016061430322
-0.040046615919788336
0.03907572623327033
-0.0168517764483484
0.040497730556396806
0.06578391851207309
-0.05587265339327703
0.041513016722940534
0.027096315464935596
-0.0050287658181211725
0.032138277764985575
-0.037520024810459046
0.010254052802128828
0.049605048883058195
0.03825755328374475
-0.018589670080360363
0.015587975360600229
-0.09123372048296607
0.024520008160624978
0.008838452022339304
-0.02056469395236159
-0.04684150592555277
0.051205716426383774
0.04537831067989631
-0.020919138886177094
0.01187471333363844
-0.07484211408372353
0.0436468867386207
0.0785853719835509
0.026842087453676552
0.020247534223036188
0.026672902173336302
-0.010602783169317103
-0.022905990036893586
0.016701323361524408
-0.017571347332439827
-0.021997109717569574
-0.11400022610501999
-0.02567809680861174
-0.04977547869578747
-0.04651466522631906
0.026939517256567447
-0.003588162603926648
-0.05576625693944518
-0.0010991327545122717
-0.10169534944480503
-0.009695108011412362
0.04389195785453835
0.044852216219626
0.018837726889517667
-0.10023028258637412
-0.022583045422646057
-0.01799413882894555
0.07125023382247572
0.011353262914584923
-0.054524693414873676
-0.08539077437238349
0.030735711455570983
0.04524202023596108
0.12118525263462405
0.009988745493286677
0.007370717349095388
-0.08016673630191488
0.07480787509892936
0.05135924936436517
0.047952279293636796
-0.0035787501334010874
0.00940726136336951
-0.0060861247157234935
-0.0747725110624904
0.018369218339805062
0.03730063165877034
0.03675770699117829
-0.04224912954682074
-0.05105796039827586
-0.013458581589786106
-0.013505935214209036
-0.005673868856968555
-0.06738943733876532
0.08138647893669254
-0.04385365514675358
0.015804858757393524
0.0013751094599481716
0.023353340576442283
0.039130311832571395
-0.027233149114885304
-0.11630721150160202
0.017586824636880945
0.03184065553106488
-0.011554651406950193
0.030139586770369826
-0.031179943896146506
0.4694623303557681
0.9838811155798193
0.44334335635536054
0.09142630145303113
0.049718867200762226
-0.009376937766931022
-0.011068243171163929
-0.0025353210939085095
0.01477909309284242
0.006821340726379882
0.027741536280449747
0.0037692376985578382
0.02925769225209228
0.051037064858397665
-0.06172635967498438
-0.02894131132922836
0.013432045606112894
0.028655648049660427
-0.052691778298155426
-0.07406794395076725
-0.004519496275029858
-0.047186361464671644
0.06209646951888506
0.040644800438142684
0.03988365542159217
-0.03347197635258779
-0.052394748938549764
-0.015777630667449798
-0.05292459996491734
-0.0806360575435882
0.02539829010365287
0.05908518030964016
0.029015913403896178
-0.006138254318370302
-0.043358960419432185
-0.03361163034706037
0.0526322426495779
0.06860026407905301
0.039965628845189054
0.02537429928563861
-0.10710731789506785
0.018099556989452086
-0.021163979237298985
0.013645495663821706
0.07755561081356219
-0.025409920994350174
-0.021535663947403295
0.007759857141370396
-0.07143072818588866
-0.005698950696978284
-0.0038720679362392106
0.05894968914895023
0.014571558541245361
-0.015498909594262467
0.07820590980878656
-0.009852928302506702
0.01645553030738649
0.04934149089729502
-0.13124609629312617
-0.004200692332119623
-0.03481832813074006
-0.10884321211254744
-0.013918373154099937
-0.0015855303151322223
0.004602306552311488
0.08885552436358465
-0.03859548635384947
-0.005165171968024775
-0.07482094946378998
-0.0391476062507396
-0.012304229901693808
-0.04941987745028529
-0.09961371576733498
-0.04608505850624344
-0.05289786282140707
0.03369301470026789
0.0077937917123253615
0.05319158423871802
0.03533857074149658
0.03174368910236072
0.1037345607440938
0.05799002924471389
-0.0024344319902394017
0.002927928232483562
-0.006391778310046874
-0.03840422128986898
0.03235984623966364
-0.10359516922312542
-0.08277504676258088
-0.00302020232866094
0.0066332532859733236
0.024355754540966952
-0.03324505936808308
-0.06038549152738101
-0.030907114107191644
-0.11360303964658314
-0.024127501101931487
0.04028637941506582
-0.02599873312178666
0.040661723338738937
0.0476529828909943
0.03964283630616217
0.00563283221815143
0.04369884460903151
0.05494865875494048
-0.03311026152259077
0.0361501200537253
-0.021155760766782883
0.0668150721297115
-0.10663764651667225
-0.011415301005223049
0.12145985086534934
0.06208895268165091
0.006113604280039407
-0.04083968078652829
-0.005589296969955997
-0.01951609306461
-0.026963220361013118
0.00021096597068178012
-0.10940972554168399
0.06495884559412052
0.0031224178704192434
0.009932146526993767
0.06747304834397186
-0.01649229798866575
0.04171858125471411
0.010989528183474477
0.06091909955708265
0.013712637846269554
-0.05905703805080978
0.01357784161865003
0.01550810109715687
-0.059455967718332274
-0.04762931970303785
0.008853989983934564
-0.014485363625708013
-0.048800427980329415
0.01157643314893042
-0.11716949666902175
-0.04959411646823845
0.11566629917702104
-0.00818821725208735
-0.04470162966605284
-0.049324760310601956
0.06642639374409161
-0.020500304633093047
0.03875445405495834
0.01243398381516976
-0.028603056074568846
-0.011932865686462476
-0.011916485776885985
-0.018215745125560703
0.09991189329564948
-0.07704210871632662
-0.06064672088921369
0.0335971569059158
0.01390656480124623
0.05895896637158809
-0.018903616801186768
-0.045407474209025044
-0.006121463575111368
0.07714745660632291
-0.025799135741756952
0.007211806868034807
-0.004710301954703324
0.015850674848725696
0.07523646235952375
0.027509785756642386
0.009214273231872525
0.007438766888240725
-0.01953193485015005
0.02345594504410007
-0.04409127622892071
-0.06640387120294233
0.017384522821167762
-0.05595686395465014
-0.03031052094668962
-0.08300756435535833
0.0012145127598955179
-0.092970119318529
-0.002422590301538982
0.0793807810150639
-0.052562375266472
-0.05242833486361882
0.015254729050706205
0.08233648517632208
0.04695914740583574
-0.07029935394972463
0.008594479451990805
0.011207209392690754
0.05061757439418157
-0.0873832961336429
0.0842148239233045
0.012819906241261803
0.03683426789220525
0.052878954537892944
0.011287885239541943
-0.001733922672731928
0.02365499711827132
0.07846587146650602
0.04118729459329393
0.01447788009215163
-0.0037799027539459555
-0.061259611430389244
-0.007781179867608562
-0.008459968135897207
0.022896085697372014
-0.03672041650767856
-0.03253596808348597
0.0013175360722799388
0.06200375712133326
0.01649506415426526
0.022554263293224228
-0.030312627821020174
0.17421173251826289
0.07959402886876724
-0.007525018490138655
-0.07034965119845742
0.06464957275308965
0.11196867129523654
-0.022992774382274064
-0.13148749746700109
0.004016007318791229
0.03392045189748786
0.11702481768838702
0.507560668034082
0.9024994219710548
0.4797719569012862
0.1406300790725999
0.015986159509225915
-0.0005454538948396994
0.042925757390469915
-0.0013325543311372174
-0.014043422917905973
-0.03313615534925732
-0.0508473853020717
0.044569414896482085
0.02977413029565076
-0.0073882090890514205
0.00684031548637344
-0.015117721942987382
0.04787196130937078
0.007955058793526737
0.06479971831504726
-0.10922866524058068
0.010966028883398864
0.0432545613339053
-0.02639714606777657
0.014939799892991752
-0.030226348156206395
-0.013914924447148203
0.06748513623357773
0.034620045030883964
-0.03590215877217225
0.06491156546815856
-0.08935042627989814
0.07922125670294833
0.014341255501964396
0.0002678148651406124
-0.09474326596740124
0.04728140112111219
0.03613661137330015
-0.02263641602486831
-0.02390011787202942
0.04808770393698419
-0.02507755620095475
-0.05613807894188492
0.019000128466608143
0.030032679663137482
-0.1103027541218032
0.029284855984476756
0.046384184535759605
0.132675966805665
0.0417831131766674
-0.05062969037302757
0.03038415800641002
-0.037756706175908886
0.008421789286356823
0.02279369697377272
-0.021581172894237156
-0.047772418325311206
-0.1083125433992259
0.04541730535672448
-0.008732122007658199
0.005872660008390498
-0.046596389238565655
-0.0220394730952347
0.06959073554649188
0.015835501616537177
0.005376667181255803
-0.13338536532136067
-0.0738760235432208
0.053917445671352926
0.03236663575004055
-0.06228885179810233
-0.06474978507294653
-0.08914280790133366
0.036663473156687235
-0.02280744111345982
0.0687139662519659
-0.0419940964645607
0.007840713636868245
-0.020547739763319015
0.053823156774163695
-0.0765808007859198
-0.0063098499195414
0.008682064657695283
-0.09393296713894536
0.09541055931647041
-0.0067768520568565055
0.016764941984560206
-0.01006667762237996
0.05376461249800625
0.03833322020903826
-0.02272772382936833
-0.016436275131382707
-0.038693498511671816
-0.00984441129133388
-0.05743843090990602
-0.029977860650206967
0.008822193299998287
-0.04111553889264926
0.014747120883976129
0.09814249555603236
0.024035137369779275
-0.04676745623076871
-0.012824897279107454
-0.012977830263109695
-0.08372089805734964
0.0661146332020166
-0.011408432956725119
0.041253688551909445
-0.06453143545531344
0.11033757202571962
0.046578992118909465
-0.060377949352013585
0.028714493452399577
-0.06095863286881828
-0.03912890159587192
-0.08081009821224885
-0.022450287041935642
0.01010856597773454
0.004082839050266054
-0.04113294852086942
0.07201378645303257
-0.13008481234643
-0.03286204492939424
-0.007979864670560215
0.023882611023597768
-0.053034171739014105
-0.015180833089242497
-0.035458779167685535
-0.06449289473670304
-0.08412804176472143
-0.08079087526014583
0.02889720392556256
-0.03471721306580337
-0.11124585984367907
0.05274195880272706
-0.04333233788063562
0.04563842221388613
-0.15762601635304924
-0.018834592478859113
0.021564957096471028
0.03583160080210037
-0.03386174852152828
-0.04620604694224963
-0.03198656422833243
0.040092124565525245
-0.018813144210112483
-0.042082459195615596
0.08319580802723436
0.0026217803652462146
-0.08563374351512229
-0.08769017135016927
-0.02229725274204376
0.021815779580785226
-0.030965054347918464
0.047616785541940765
0.06642894049808334
-0.046171267533258974
0.09656682450335274
-0.01463110505228043
-0.05334864531608237
0.01290533355329408
0.08333364014116627
-0.017336911517004623
0.006992693997227727
-0.045270494946387185
0.04875990513303309
-0.07662909603017184
-0.02564784636552595
-0.07081663693764119
0.03884175627831395
-0.007436007406515674
-0.01188369304409729
0.06682412493948628
0.017979150033694265
0.01053699005726318
0.03120242830347201
0.002695261247230153
0.003036297843457854
0.05952748101067154
0.026011791709142987
-0.05759628156446294
-0.03691374889215517
-0.01693600263844248
-0.06488304192668952
-0.03354499966873948
0.00994011683708911
-0.09966435463812845
0.048597056616753086
0.043979229345241934
-0.10058063863538756
-0.013472886000791141
-0.06522151936251921
0.02240293718836725
0.01833582013839906
-0.06501369498225038
-0.04239271938016086
-0.025299301450810288
0.04715581208141728
0.10214957369805405
0.612936228106698
1.0314123009374672
0.46369104278069223
0.13897549286958766
0.027556768715540383
-0.04602570591575998
-0.08990353298399298
-0.023195115235168276
0.0819628939196242
-0.018891583271696665
0.00778801078134624
-0.038412181188307255
-0.04652712519489858
0.008838688024229718
-0.08114083876810951
-0.03455799763605895
-0.02247739227271853
0.004058226329554721
0.023398339452104146
0.04851167558657594
-0.05100040588540085
0.031891681277263
0.016447814263630012
-0.10455558167284013
-0.004758558077290437
0.024271060427929536
-0.03783252096943715
0.07351453664459211
0.023374457714905678
-0.029290971547278763
0.026605823427099374
0.0008655714984029159
0.0312892675437836
0.033999273529611095
0.03261624837226889
0.05211242489017598
0.09590448863971912
-0.11206352363397916
0.002752722726243394
0.01597571625738214
0.04823077211920778
-0.05938142577061539
-0.04615750755059883
-0.0368995743680077
-0.001658047180023023
0.09051576716617309
-0.07475138046289145
-0.023142680483102206
0.07874484746106669
-0.0321033140954065
0.02209610567038268
-0.08337532785795555
-0.059277609767185414
0.03852629176874644
0.001513082605565338
0.036586603915692996
0.008098829148313431
0.015316457980381372
0.08994621052249722
0.023623844576800043
0.0288038658460473
-0.07148699724965998
-0.02421791486895768
-0.05122163537036604
-0.023554725804122642
-0.048690910820393694
0.034580311576787696
0.05601777163980465
-0.0036250784828318855
0.08873855010331556
0.1140104966877043
0.07648305063287385
0.00197581881660531
-0.12143059109388397
0.0002394773109440774
-0.07243997091726334
-0.0012072930410926181
-0.049343706310997264
-0.04231646502407213
0.05955617739916881
0.005637058893147679
-0.06687286557303364
0.09574285991555041
-0.0009755344464046018
0.048441633462812106
-0.05184087659417791
-0.06166497772563904
0.0050782588145602044
0.0779380509988156
-0.02407839452092463
-0.031633483076363315
0.06525403366139874
-0.07858919734199105
-0.04085383207514442
-0.05769674598412136
-0.06887801083544452
0.033911688455408345
0.023791935346110193
-0.08342438505257972
-0.08381931299646783
0.06189998084697007
0.017730965842573318
-0.030672544758648182
0.082582040237631
-0.012216169366620969
-0.005865551605349583
0.010116447830497387
-0.02096826094873554
-0.030531494823342744
0.07275237398122635
0.02699083876800425
-0.028870251514909673
-0.05155723065360512
-0.046415020654986656
-0.046322849359412166
0.01762386740986988
0.03850445589433666
0.0023619015883077077
0.055198733654197855
-0.0386839197157816
0.025670782636638814
-0.05191040670654854
-0.10011043514422749
-0.0022283754095043127
0.06532551096354587
0.004822292641343164
-0.02758595748756027
0.028859054057684304
-0.04291690229069027
-0.034565646894239736
0.049620565805277635
0.02814897646289289
-0.04367298382174526
0.09464021751818119
-0.040094991105680634
-0.03389638922752071
-0.06591570479992177
-0.01083310824162615
-0.09659367265952312
0.05820627795520178
0.03447020418465523
0.011928110285400154
0.02545159843308465
-0.008944073236162099
-0.01843611169799314
0.01006217149125177
-0.03942375951575996
-0.01500277091391384
0.023029541620991932
0.05664814161605241
-0.010824340598514367
0.012376734180564628
0.005193546822513874
0.024227335264869216
0.07264869012368734
-0.02281748170874537
0.07707654274679891
-0.03932798517101599
0.02761578633574039
0.04423917620288932
0.004481740211509241
-0.07606543859322601
-0.08974835458941119
0.09291849958950077
-0.008456541591977767
0.0729525500652832
-0.0651016284260753
-0.012919323071436301
-0.09245099046265481
0.05222760691887665
0.008832286320344107
0.005799228677591569
-0.008192797430701127
-0.04534752028233771
0.07150351097601963
0.004632685431897881
0.07646506795567908
0.0057882058166373995
0.029370323197181615
-0.04563475281902785
-0.061292218694593295
-0.02246189428320813
0.05997904776100395
0.008513062877109734
0.0497341303760603
0.030091092498264027
0.04062978237209127
-0.024126785890874573
-0.0019467052165245012
0.03395746226477458
0.10928193657436254
0.027029692749526598
0.07799588203563373
0.04276588686268734
0.06500920391479073
-0.04305635565027587
0.00311689845294825
0.11474095847100313
0.004777450622536352
0.03164781969302737
0.030087809034459817
0.014814968216210984
-0.030914691814905144
0.05864262760706368
0.07530313313101296
0.04293526809971043
0.03361613073996671
0.04637754615000311
-0.019404779172059954
0.018768443932522347
0.548158823964247
0.9513164659735152
0.5001193034509395
0.13088851531035958
0.016319882072927134
-0.01826366147914132
-0.07219210623068181
0.03397748757300439
0.034426359391299996
-0.09254093986271754
0.023434580960382055
0.04209339146795277
-0.03537501157808674
-0.02075176904860718
0.008301634257041139
0.01962708480145684
0.00828135731517742
0.06191705430975665
-0.06286467120185474
-0.051607100575093226
0.028232297852300716
0.005906379692131116
0.04399053559988012
-0.0093375787424204
-0.08419620755977947
0.0032681629535926287
-0.03457972661827952
0.16478309066398622
-0.04548935845427493
-0.06342479526792738
-0.032328627860876875
-0.06654952194970756
0.03972894260161878
-0.007131021438793933
-0.10160657445768398
-0.01698840055568107
0.0705836326404077
-0.029739479184232833
-0.001872266929322808
0.03205564746546784
0.019036141027371063
0.05379422594698148
-0.03388832494915455
-0.0468127397354777
-0.0712768999937786
0.079947508167114
-0.10959851779008781
0.015673048691614063
-0.0016970360035534976
-0.04024692799871493
-0.030923722781998748
-0.023714975502145713
0.03777508749914069
0.01078059130736659
-0.024199018341202135
0.06955764508708347
0.020870793457629065
-0.03749629390507654
0.0023791332404384056
-0.09192487960935562
-0.019573744848232336
0.018858950370907762
-0.006914331466092165
0.020955647380189124
0.03617298089756038
-0.04390309462401886
-0.06864193297499992
0.018631784107789966
-0.10145961068415184
0.0036819732180018642
-0.00015024883915035233
-0.011907688498554544
0.08343416802154767
0.05071690486979727
-0.07251830192660991
0.017375448867982462
0.007519428685027422
0.026553656236341497
0.04933802320424266
0.12264667733598296
0.04582880275777224
-6.982931524354825e-05
0.017648929347678897
0.026161263305074803
0.0463667074259703
0.07393779178238238
0.027912806364012874
0.09378641903109237
0.10287484028840442
0.00248277959140195
0.06304556250434172
0.004819555882213493
-0.11004585950340347
-0.057013714142953524
0.04458210595960102
-0.01764170779369908
0.028896011268710255
0.06046971841986712
-0.02236030612945233
-0.011116019806222122
-0.027718387965038102
0.011353778568991016
-0.02873668468951738
-0.01659419509953948
0.01706283152620769
0.06375394174865723
-0.037531689312798544
0.016542288743751965
0.002542861646127375
-0.07097350845897216
-0.03772741387648545
0.017226871004435054
-0.015343319987358554
-0.007409452299805164
0.0035549672452030823
-0.06801040673373124
0.056005522031760596
0.0045486361191101315
0.0191308288924492
-0.046496810710627286
0.06219755531115141
0.05884117986676112
-0.054049933749856664
-0.08178370057450872
0.0021840889823728725
-0.04167803599239492
0.024095599275599257
0.06036467868935596
0.016415811804720435
-0.021106586689821974
-0.010897331098892208
0.01119039591024567
0.02268520035829019
0.010609371576865386
0.03129237982857138
-0.016244658183394087
-0.0478853854461111
-0.007996342499567424
0.08946567813283383
-0.009003842036050307
0.03365371229195151
-0.023743788531233125
0.04065876564770002
-0.047288101721611076
0.03602197312728334
-0.04536191223042022
-0.06297093813683663
-0.012559876861933909
0.036986590015792555
-0.04982201227207903
-0.13083335263991264
0.0036601682898476716
-0.004564486186869191
0.0452436196931824
0.03028998874791114
0.026572051658618742
-0.018817479186323663
-0.057905091941872634
-0.00834643876594835
-0.01022791739943947
-0.006180884095711841
0.038803469530519046
-0.018677812270311657
0.052682847761984
0.052757455902694976
-0.037606948859518964
0.014891461635817622
-0.045652484505441154
-0.043262529176580834
0.008651882504946935
-0.08139442719421372
0.007265588151596166
0.009221218946309916
0.05934780808513192
-0.04255599271858434
-0.005709717508681233
0.03595019394293688
0.0040054283760390585
-0.04973365805995039
-0.014982252723685703
-0.010394263313845083
-0.03287080211982497
0.045880586050807616
-0.028529939669192747
0.012919820287838453
0.017178713915294585
0.07748562350962977
0.06576994099353818
0.16311387451018192
0.018955277481490146
-0.00044171785114152174
0.026532444577392535
0.03985939873356987
0.007498398438878982
0.05045905568862905
-0.01526370233705702
-0.054959877717946
0.01043214424816083
-0.0742245783619651
0.06003377395408138
0.4508115123933674
0.9651252530987322
0.48340229476848684
0.07715467026115456
0.07768554701956258
-0.04302318097580254
0.0048333766442784434
0.053145081976569135
-0.0037685020862067635
0.03107010239480705
0.05562316684531704
-0.12617702937628633
0.0351868808793046
0.024867959550073558
-0.03424579574787172
-0.05995993102064278
-0.019168873792575092
0.025352006365982505
-0.015461658653144465
-0.02475038927321628
0.005114235320793764
-0.04011994351612664
0.025130596444946654
0.002974778303044711
0.0016133770856122727
-0.06026812198091247
0.024064702055365775
-0.03547666157801038
0.045776510221809556
-0.07080191240048098
-0.07365328359214779
-0.013496790766244035
-0.0165301500634623
-0.011719437682257382
-0.04318884701278014
-0.02144046334565446
-0.038085541974198056
-0.06774219830476487
-0.06745671956115697
0.05211434200282883
-0.05981817184777305
0.08552971611627452
0.014389349969274538
0.007579511479909528
-0.008533984166319853
-0.04966655846056224
0.007388134200052802
-0.03774629526157585
0.07923688772290262
0.020527562571126246
-0.004587830445132004
0.01747151905721085
-0.06368356097093601
-0.03464685044278855
0.05079369133651897
-0.041337030170654224
-0.045651469971524146
0.07130807833107858
-0.003148118116239974
0.05271071023791708
-0.09699660275634271
0.03393492639642628
-0.02328281012865205
-0.0223269894629574
-0.061779627124847615
0.01661736310630146
0.001419695958243071
0.011227323929390038
-0.08828097757887088
-0.04966457960357674
-0.014193038905386158
0.005307471905372885
0.09036646159511544
-0.08980376615602499
0.044438971497253066
0.16182869592828697
0.07335938688583094
0.06486783210753887
-0.09503123091499475
0.0977944371621892
-0.020961578753992977
0.05325801841021349
-0.017019035410211953
0.027412785305128334
0.0073538926338926145
-0.06588871223218438
-0.015125209176455788
0.011744527331645322
-0.029751298461733307
-0.09208545252808786
-0.015577958736488285
-0.05130087838615299
-0.0414131037526392
0.014653284932132762
-0.06254439756805069
-0.034991346211544795
-0.007773268179801652
0.11749379741104163
0.016608471087216598
-0.026599550016784643
0.09304287214917153
-0.00044284809948579766
-0.049313485645978906
0.0693530228577155
-0.00598366826832063
-0.010431648818366134
0.016691796099207686
0.03655900627308928
-0.06616355331352
0.034513878127436885
-0.09568703491476326
-0.059811086755138514
-0.00920106422799383
-0.05090308956763378
-0.043010879768842436
0.022084801677338936
-0.04248568624874283
0.07756256313999538
-0.01367605638069312
0.014676103507709086
0.043642057278233407
0.05497918524860556
0.046231805575145446
0.043645868048959195
-0.013372181537190567
-0.06711456143129796
-0.021799652745351773
0.012573748984996969
0.00826709217785507
-0.01712829804340325
-0.048390350971300095
0.03332052994033335
-0.009090716791626414
0.03661052272907492
0.04367579376349484
0.06018897899584102
-0.055612180247456726
-0.05965004750590263
-0.04465731161221162
0.0007866496518353713
-0.004754747890143692
-0.02096228064673086
-0.08483487732844013
0.03801309539209954
0.0329329866349621
-0.0046677837222943
0.0016598296258680681
0.005110326171507412
0.034632525723514385
-0.04278578222076945
-0.006507942586313451
0.007902420816525842
0.05131861745411396
0.03310600118581435
0.04357268885179857
-0.006871208953043728
0.055750995355705185
0.05011608516261552
-0.04012779467960176
-0.08256707763493351
0.022627809457772468
0.046124532583607825
-0.020603670296779477
-0.06327133853299263
0.07958204298558509
-0.028502924195424273
0.08801405290743408
-0.08289955223680152
0.04094610945205259
0.08847663488632156
0.00035875871534183463
0.048062920607047
0.07745921116729108
0.0165092502891356
-0.017581273239330567
-0.009999277845510593
-0.1083375710702243
-0.0807801745015864
0.031175204600548
-0.05171648850341001
0.08895222298545656
0.04659643154899405
0.03175604058793267
-0.04354781566789133
-0.014339960872465926
-0.016216200794142346
0.07706658609664141
-0.041061651987596565
0.037610242076998014
-0.04066453830685389
-0.017857044579422502
-0.013753340404768666
0.007678278827646883
0.06720802601726139
0.020180593033768228
0.0437164518375542
0.04702554453674566
-0.0289770652141899
-0.004204825658775281
0.036580485598689455
-0.011781524362564811
-0.0183776649275371
-0.021205788912678717
-0.02429886160214414
0.05362508654813983
0.010659786293855009
-0.03359446381620426
-0.03335731090631394
0.005431147520968274
0.054574488233725474
-0.00016387363125725722
-0.016274327335366264
0.004897929101862435
-0.0655512354466256
-0.08356694781039226
0.054020743852600854
-0.002908035124377798
0.0343956176000125
0.02540592263719135
0.016668505504116967
-0.05728632350456908
0.10342682760414318
0.16553614230617503
0.5595134683343804
0.9597888123625583
0.49484521679051796
0.21692651416009717
-0.10263134371546204
0.06167355539395236
0.032219885730541534
-0.04007882067296504
-0.007724686731541697
0.03363694321900664
0.022131111112804285
0.018972714765308093
-0.04677867605466534
0.020345720390726723
-0.03420712792666888
-0.02797661480148308
-0.04777543675793602
-0.03800177747629989
-0.01994528403890639
-0.031248865470087185
-0.014703499269233181
0.014359698732259113
-0.046783382940692286
0.05171777041432182
0.019879854663348583
-0.08200938359231175
-0.08858608664299317
0.012975792386489528
0.06734174885862923
0.032560999331840715
0.0029323884256327393
-0.011948729818117433
0.12340461989915051
-0.012200772802648599
0.03566966199927562
0.002921255986563871
-0.04241904149450973
0.007281982573652606
-0.042179474797816585
0.007054920740355683
0.027375377437171756
0.06955591549659364
-0.06037609908063335
-0.06947971416137143
-0.040595089630674396
-0.020457374406693558
0.02178357284733437
-0.044734527783237166
0.05341415602941953
-0.0003755356281544163
0.028775435288012144
0.03386964056414139
0.06467125166928345
0.053237963425029206
0.010223870941591169
-0.01082798491612219
0.023660800180443795
-0.04258841840203382
-0.015279772356039882
-0.04770463231125614
0.021242381570742083
-0.014098412393146909
0.10083374056443602
0.09186478203991397
-0.04617800220886233
-0.031156208526559738
-0.03443711132247675
-0.036518263448368456
-0.005486977267400222
-0.01997557306685485
0.014403125724782579
-0.09634993138301168
-0.04858190300656878
-0.019287478977051322
0.005057715358901004
-0.03914268775362437
0.0669659147002271
0.027479528334062222
0.04290672268007717
0.01003167203508158
-0.05437754152856172
-0.024588011135403987
-0.033456548249147
0.035104181897721715
0.05675478210411289
-0.06866328248019181
-0.012546230324821932
0.10511459052975254
0.06118139407351558
-0.04711004850698929
-0.04225757590537119
0.0027468255966062276
0.060827723787263394
0.009840526288780528
0.05808788644358044
-0.03672767514483844
-0.09142989546919422
-0.005576443504013073
0.006274827869468006
-0.055949768822863656
-0.011792418514523433
-0.03288127326660225
0.022867069270731094
-0.0371244743274575
-0.011436207627935199
-0.048844717123931666
0.013188749886600099
-0.054860827648620894
-0.005659463978091829
0.08467588110915863
0.004129433714818117
-0.040891178855773314
-0.06104198941166899
-0.008864651740852323
-0.004564507561081818
0.04725641744128834
0.0134132768919215
-0.007898826087801042
-0.0037532733236609775
-0.06460257541544358
0.024385294295355197
-0.04288885740185859
-0.02513808572756564
-0.008785164808390948
-0.013091146129911982
0.020951528185179678
0.04161977351828142
0.0014728262223697014
0.02875544351592607
-0.017930172751689136
-0.012458170357914307
0.03213656428720048
-0.008887334274154144
0.0004157887769715054
-0.022495060983513147
0.07533075140098788
-0.027830558216592513
-0.08040700082696506
0.011429110944091887
-0.08961571999326058
-0.13296810346209895
0.11678264309010689
-0.0568128844951982
-0.012415320104511752
-0.09197438944334145
-0.03949461297209572
0.013053195288379865
0.06623442349288484
0.0991463317332336
-0.0413857705280989
-0.003139669255810998
0.07184317832675613
-0.0025464532130848607
-0.0035626624872131967
-0.02056262467014624
-0.0014451794863168561
0.046656962020030356
-0.062271674057158805
-0.03690627817759926
-0.0029357336601601894
0.04645148657801531
0.07152999779028256
-0.005412178964610712
0.08742277952799914
-0.06181969714786535
-0.0449945290237146
-0.025621800523428075
-0.009632833014360402
-0.04426155509991758
0.007365189327997464
-0.020781671304845498
0.052450596519088136
0.025436723098009536
0.0221452271824196
-4.048724391829706e-05
0.005616919473364458
0.02128229419273945
0.07379068479262643
-0.0037873430857984602
-0.05846733666530395
-0.02457474185087301
-0.013791440819011257
-0.005498434931750416
0.016482203579333866
-0.02266796190481059
0.0019431100833089078
-0.05171291385935092
-0.0671275803605077
-0.030837210992665842
0.023251998940300517
0.05124705060769058
-0.018742337787232874
-0.08212945083398511
0.11648218588343802
0.07180396836184581
0.07230990419593591
0.4713114174147731
1.0051055152111088
0.4560018211218497
0.09332667320906873
0.015828937405765825
0.0483598660043688
0.05452221475169823
0.0017680074558088753
-0.05888253643408206
0.0679219999079999
-0.056603810204893856
0.052825479168289904
0.03370577451511838
0.004899726869283959
0.002806286234301714
-0.021886011033104127
0.0355603731700728
0.054602164275852606
0.0786192437761636
0.01078575629384977
-0.038183838690596245
0.034480234353154525
0.03074801142284991
0.032960009684177706
0.036566842595913876
0.015217801506621727
0.010257311542197079
-0.05752057902953708
-9.208540248408371e-06
-0.04456676312856796
-0.02535102652406651
-0.008295920286841705
0.020568865080891265
0.03128205828271028
-0.0035420385525380647
-0.02023547359834986
-0.016691200847590185
0.01589120960190632
-0.04369737193566556
0.07738473167548537
0.09872384526310558
0.0072628363789110075
0.16768417833457158
0.010127029467320994
-0.06527047133210732
0.12513486057231213
-0.04279946425215229
-0.05068184722764836
-0.09212729337016112
0.03120214496783054
0.08156548294558286
9.369441654809334e-05
-0.010549093745896614
0.08344251870243778
-0.011542698823241314
0.019586016304476053
0.03862076047807893
-0.0889162068936619
0.00880038849234059
0.0015225796061768809
0.01867855307432888
0.0036134432544438835
0.0074008991782921535
-0.0682380629525229
0.05813726449157552
0.05627479848382694
0.03560653643654527
0.02363353962938662
0.03417514332792489
-0.022623191164366757
0.010711716271633026
-0.02737109953561322
0.028866124936554945
-0.035028624593937706
-0.10364514800088523
0.034650630184514475
0.008544752714479211
0.02900266852600332
0.009598120044664454
0.03597590816643489
0.026437037192181146
0.03167710196835775
-0.013494741205427797
-0.03917407435157869
0.09999011727359454
0.031020515571042535
-0.027317547427839657
-0.012272560613945618
-0.015233879439373973
-0.0030267987776642687
0.09129231078981692
0.09748831136954744
-0.05515040747606356
0.06981366090484045
0.09932722635383989
0.033581242097447055
0.050119850165448336
-0.09344337787904344
0.03216334809324663
0.1032463585870907
0.00936248279699794
-0.0054272362780404225
-0.08036635517007037
-0.005399816042608663
-0.035372985803123494
0.011810495632412953
0.0455451395528868
-0.033120282266249954
0.027103361476193407
-0.02293845522997876
0.01338328951691076
-0.060930006847119036
0.016532723041234425
-0.11170502706766108
-0.055385076771672884
0.06828292538300444
-0.06290338299708
0.020491429127889562
-0.039239314147858605
-0.10303476785084292
-0.05343010633044351
-0.014487395327571265
-0.07974644542175464
-0.09912975577926615
-0.007362610721308344
-0.009724099106814217
-0.053613145854575266
0.018355923751209504
0.1236861314700688
-0.06375467739235224
0.0843877277261541
-0.031707943144736586
0.05931396388881233
-0.017746119212927527
0.016855006239472316
-0.017771402386470923
-0.0021593693238292906
0.08139032536857303
0.08032985276431939
0.05130371129448642
-0.05717473436112527
-0.05401484752547543
-0.07611252889695391
-0.0009797622572796656
0.0109663894077867
-0.004055111538898292
-0.0468276057405832
0.01739101314208485
-0.030599757454955225
-0.06402106228308875
-0.019246612468833805
-0.039002658254167474
0.07429834571254726
0.018188877930410227
0.005005223246727741
-0.03148103664772489
0.06397653174761996
-0.008164226376250475
0.06151910517843937
0.03808017372375073
-0.03416279528142531
0.06581839096706353
-0.02805513578498601
0.08136488237819335
0.1200227107770165
0.061177894098309954
-0.1460086148738435
-0.06386357676099268
-0.04917016883302559
0.032210588211423585
-0.030695258971232042
0.01748240623941653
-0.06271462177890555
-0.09539086598484273
0.026921168666303532
0.008063757044972681
0.04355682453760572
-0.01142958689981059
0.05959699731221793
0.008769234839387978
-0.11404273407563642
0.02555676542928246
0.062097534876815075
-0.1243323716890089
-0.0032302521205957143
-0.06236677703636271
-0.06260009170866258
-0.03443428711623372
0.11741187521196217
0.05211223461469841
-0.019002785311570812
-0.09552316811717171
0.012537374137940767
-0.07758741028056076
0.05575292086774564
-0.07313804864706004
-0.056968454003043324
0.04283858643317317
0.0498039655693323
0.0025105029466392977
0.06867401626819201
-0.05462335170215489
-0.06332377535616666
0.009007653083962657
-0.0759743092831325
0.129383509547583
0.4641685452876713
0.9835401402780151
0.5426780111729094
0.1946561395078884
0.029021508244362337
0.045377636633869574
0.004285940764162966
0.0613210163040968
0.08269527748268674
-0.017597352450425974
-0.03422151055392412
-0.02894046878075488
-0.08088890254811566
-0.013000451013428928
0.06853162560104598
0.05997380907759484
0.04595735850846691
-0.006318617790717703
0.033822398334474
-0.025921708217315972
-0.02227918007939395
-0.006615081461524443
0.08708321715250146
-0.024340631337202497
0.009519941525650881
-0.0796643199020118
0.018915480372018956
0.014573426013725396
-0.03559960753191657
-0.09002983779315885
-0.022515466715370233
0.00016813752715586313
0.03267709431466201
0.014860260490977845
-0.06877794682269577
0.007068489454820136
-0.04180828869586966
0.038481339855439216
0.00658159687655132
-0.03872144061659423
0.02389826349278555
-0.04128436771912432
0.07487264978491896
0.05044482684950607
-0.0543625035497741
0.03683154211540928
-0.0002980410339437319
0.0116049852193374
-0.010317876372310509
-0.0038245223715678172
-0.09487370617434916
0.05586062267341309
0.019800571350120227
0.06495515366641717
-0.010493432177586907
-0.02046527615326966
-0.03241297882504638
-0.0068834075127183775
0.05574590679642051
0.08936576856711169
-0.07778963859659645
-0.014120783034435123
0.043362543406009035
0.053155168696443655
-0.08515370495843819
0.07772422722233815
0.047413962946754
0.07333134274537192
0.0648828068723206
-0.03628306688141469
0.048631057774476384
0.05331129175118209
0.01674362109456474
0.062655122883108
-0.017944299814615938
0.059149834865985455
0.0019242766659924122
0.05752293888449789
-0.009048757950732643
-0.0027746884640906175
-0.07435795023631844
0.06514374021331698
-0.06036072274142229
0.020625241119964013
-0.02523210043006187
-0.02870615932683976
-0.06273030813867493
-0.07768923944359143
-0.023029700602296196
0.04091026732648784
-0.05901440404125738
-0.009152835970058686
-0.01530301828016152
-0.016526644058600923
0.06889888284610222
0.07662624914827217
0.10007096803144572
-0.047979738471565524
0.021592677109347636
0.02541669006895769
-0.018190766529298793
0.003871882521561546
-0.023873445466778845
-0.0794155793089231
0.06046731237549977
0.04859647790193067
0.06231764483244016
0.0636017997536131
-0.10547251238691718
0.018973983895881577
0.026312480695678667
0.0199423792558614
-0.048223030273107315
0.04637538301116454
0.06156480837866474
0.023092546950450966
0.007900127726788456
0.05165846018350622
-0.026873120007455682
0.07872102534771241
0.01194938913575723
0.021351942499947436
0.038528983356521974
-0.03883314076588169
-0.07447337903154518
-0.04065448743716909
0.012040577568190124
-0.03982417484437463
-0.0846525123390609
0.046116186652054476
0.025195421210482856
-0.018877512013333625
0.024689107698822193
-0.030261347629630432
0.02153027741396137
0.05313104103140184
0.10301060892415935
0.07546852314286978
0.020880791362102972
-0.07054638665238037
0.013069566095629134
-0.03995513356043791
0.031029064296114014
0.024914933273814034
-0.05341035548664087
-0.031180737899519657
0.07896824837409444
0.0006083650949451752
0.02853445177307661
0.018032857371637886
0.04255905250384291
-0.05958939717028357
-0.024530728652877563
0.028037452947733566
0.09244668174856507
0.03716683076992058
0.03802874041244766
0.01759694907930327
-0.02142124541876197
0.05493245165101789
0.008592763385653297
0.06365916877125238
0.05687414918386098
0.1001890879854544
0.038069669323100006
-0.04553847398875263
-0.06739258747040282
-0.012532398839850488
-0.08103660394620199
-0.024313293366392073
-0.04508501864943826
0.07012872905062838
0.04138503053428841
-0.005247033695983593
0.02884714375083668
-0.01354359648146204
0.008154366827428938
-0.004348518283902657
0.03423118879690317
-0.06894318723296236
-0.013044869783109947
-0.05609242109659488
-0.03668509089127656
-8.832008709550883e-05
-0.08176655568980218
0.006559744545288355
0.04683987598208775
0.04464449915337642
0.04753317982594781
-0.01122494153322812
-0.017064671585226312
-0.01799011294797467
-0.036404514703879044
-0.0833742736793358
0.03376081781665609
0.0028244190338814635
-0.0038831537217818915
0.0711474136282924
0.02974304185563072
0.04816591822295285
0.0623268037338701
-0.016968140152582047
0.039433214443701285
-0.01699469529962593
0.03661989960879582
0.0577597683540099
-0.03208959922277968
0.03468735464229883
0.07353009246573348
0.4500200575989806
1.0107947658757301
0.3785683031713539
0.13201783450196808
0.041458304313132334
0.014181046174283021
-0.020695801015827624
-0.027036604971430806
-0.0022301198480894195
-0.04486047894212886
0.031036786845624244
0.04080174494495616
0.10714873587297834
-0.06510463748548127
-0.079217761923013
0.016774265118909764
0.05394205024389545
-0.014583250937679591
0.004291677544520171
-0.01806769880006431
0.025838449387018698
-0.08083039112437122
0.04366016536105328
-0.03925403973900102
-0.015624086411570856
-0.0033630011307969375
0.07559485649809057
-0.1087380128082274
0.045304658048231056
-0.07290352744634598
-0.040570848106139416
-0.060769567374534296
0.025791672138526678
0.07637271067190621
0.030771894541048034
-0.003949395255270935
-0.03602616407547809
-0.003321112578724545
0.03839016900760869
-0.008541609034628908
-0.04777615283372521
0.014000852434725332
0.010502891358375226
-0.02218808082655154
0.01467304481224256
0.054335428079363625
0.06882771811257288
0.006398164908106923
-0.022680974564402694
0.0006700842900696989
0.03393792807461002
-0.04546270394046034
-0.016380174536175112
0.06624733631378436
0.034851330525291595
-0.09670097090953789
0.005379180306975213
0.043105267361528386
0.08283578316698226
-0.02564810821987037
-0.05320681215969571
0.011499988351959742
-0.044726728825013655
-0.036081743897471145
-0.02028883375971501
0.05812134608994421
0.01285634385556702
-0.053837386027931144
-0.027603864617236146
0.0285994609187707
-0.015590619121456076
0.030028777336152414
0.036929932195421324
-0.013152321238610694
0.04098464080458366
0.021138807941070932
-0.09130963200732295
-0.07204048809274316
0.006643810231304364
-0.0798918157399875
0.03461755105171227
0.056429289650743786
0.08600923658999388
0.031658909004287174
0.02007283668991068
0.06102765789180147
-0.05809046119871034
-0.0382223610682613
0.047191663627946676
0.11149111295196173
-0.0015442716855819092
-0.007538555263623631
-0.12869207268037783
0.004496614581870509
0.06189652036534306
0.012405203911604651
-0.10101607117418042
-0.04493596436677691
0.03531438590061557
-0.011178915904772312
0.02753290400646698
0.1056665543411344
-0.07131129403234104
0.06782735480591956
-0.00013535502843091583
-0.03226156726056083
0.03279266512561697
0.03681451138126293
0.08983462398210425
-0.01110296350182643
-0.03847587432270157
-0.039361838301784996
0.025483322966498752
0.05156371340623043
0.0664121897760266
0.03138340860236249
-0.049408650535175395
0.002743737680239653
0.12464722490983127
-0.047692993758389104
-0.024282101811037606
0.07286597460509742
0.07461204723938926
-0.06617929276744108
-0.021079718649840738
-0.0019042736916679585
-0.06133994155626718
-0.07986004542724391
0.059201220984650804
0.010533349970051283
0.05573227389576835
-0.015603945844242571
0.020680605835304292
0.029831950117030562
-0.05645787584930743
-0.056663083991570135
-0.0652025245509257
0.006898044650376959
-0.015065449655439312
0.08623766491642414
-0.04485304020143067
0.00763266397354159
-0.06256178409104722
-0.04103948243449232
0.105951660125321
0.004608071007490721
-0.03375501789945105
-0.0523851445653029
-0.021988198046887716
-0.061613958647522
0.005535744510977655
0.016896110825634882
0.045072622878715295
0.03352126482935893
0.029052246150925866
0.09950196749520833
-0.05448301140997979
0.0023131765878773316
-0.008691002102524393
-0.002548255700095133
-0.0771906842647493
-0.005836523467297995
-0.028522076417229616
-0.07264414879288521
0.04206586938669698
0.03137834076245149
-0.021833124438997622
-0.08584272309782276
-0.020322247310891113
0.015668238719213336
0.03538530070319553
-0.05042504261377208
0.03808525352364484
0.01998244427707703
-0.018059470944404587
-0.017357400943493893
-0.03067290761515364
-0.005994859940778408
0.016600676926422225
0.05078312222222319
-0.037154268978808906
-0.020930297550712473
0.08788354904993748
0.08437426225870114
-0.006386309585223403
-0.04799727330294397
-0.05563637307523864
0.009981620706237745
0.031652828416073676
0.05812824912030043
-0.04619387393857883
-0.08457438007301311
0.04320397752031254
0.08433760654516509
0.027764536272776075
-0.07080350354256493
0.024361485013127272
-0.006325113698367065
-0.07772317295153093
-0.013671267905612246
0.027173139658827283
-0.06480559813460748
0.00930762919840373
-0.05317730684388933
-0.0007421715270087653
-0.0005947870423146245
-0.023922170822736726
0.034822918591983186
0.02024796126144339
0.025739781383942673
0.20549078754398792
0.573955485993213
1.0271669897773128
0.5352809615468564
0.12799400750003206
-0.011048409217778051
-0.008037424582375122
-0.10202745454621809
-0.02278990561089574
-0.013171045218391523
0.02919791208879199
-0.01714733957923478
0.012443168177651927
0.026853022309009156
0.049009946470816385
0.052110247730139406
-0.07500469765749496
-0.026774820324303856
-0.0278623025922045
0.02181008650333033
0.004009603432114275
0.013315738173720951
0.007267836563485664
0.016716793475188684
0.008402784925665199
-0.004886975457020182
-0.011143684478908665
0.056780834240487556
-0.07115325542708664
0.019787080684107713
0.049895835381505944
0.06305171691190685
-0.035793772795264155
0.003931874044504284
0.03178998186546127
0.08801749579793713
0.05313066623941703
-0.006442016331000722
-0.005264626054360503
0.016496396995595408
0.03729254069923548
0.07056602154005348
-0.08904487001380235
0.049300936074928164
-0.08675435937957882
0.10931932139428147
-0.007997207664444004
0.02314585146438715
0.041059958668935616
0.0631391272065287
0.0014844235955592795
-0.07147486125009979
0.06740880950811355
-0.0019323596865808632
0.01751301010155962
-0.061958789762178425
-0.0876808335016156
-0.024860850303255414
-0.036631631707017324
-0.06265680006960718
0.034110409453639905
-0.08260073350254675
-0.04448810051301191
0.044650629792760285
0.05278602991632824
-0.0728210241865983
0.08933843101624889
0.008233121048792844
-0.05933284960740024
0.016410699823420315
0.048158793697151654
-0.015339045982769306
-0.020237080820586492
-0.010050497230671323
0.039542137916911684
-0.10815479809459874
0.08525851640401205
0.02877302116704097
0.07342199725819658
0.02900742111569208
0.1082000065228021
0.09039886871077339
-0.004106219739469665
-0.01682526980669917
-0.041434703335536165
0.016223551491031163
0.0029663726541466805
0.09334873467562843
0.048035625982455664
-0.01872613405003099
0.007868970827482244
-0.037034777492668064
-0.014255007420111552
-0.010801618239032543
-0.0775927525122838
0.061494850105773685
0.023849073088768186
-0.06896939494504455
0.03137294655789965
0.02657894912618852
0.016659936448757875
0.01523014050019049
0.061432793586164436
0.02690939079584766
0.03641608522417203
0.027350543752175195
-0.025895953732178435
0.07195348567925174
-0.023601339408844818
0.006597879651067772
-0.015099876218101214
0.0577145197579432
0.014475045778663029
0.019721032910487504
0.05131058089447104
0.013187444440307972
0.028627332315214245
-0.061362998114159434
0.05538797773336788
-0.05219752685899775
0.10704350788256096
0.058820817124247485
0.018889756641200225
0.023955515083618695
0.009544322277842354
0.06311930047270735
-0.05905538238851571
0.00454940966229372
-0.014574373726207318
-0.04752172863823126
0.00031365908834001324
-0.0776199039825549
-0.06512745103101746
0.0898784207748485
-0.13322039094573898
0.06482134391663996
-0.06243636737584421
0.03234303449668363
-0.04304010648600823
-0.1260127888751103
0.02347233047493627
0.0033181715124388014
-0.062397290859608504
-0.05198433969589167
0.003698488408863414
-0.023175631944070768
0.04233139921934076
-0.07375738942005433
0.03577100501824831
0.010075199228261134
0.0271607548976767
-0.031309169216146876
0.02218357060800135
0.014806182577743458
0.0029599808765669155
-0.07220151194188501
-0.013779884959840522
0.07355433644443028
-0.0011445883184851608
-0.040166104309996516
0.023368673472591934
0.016221480577468163
-0.060611774499220276
-0.08073394621845997
-0.01786601374269197
0.044681636875214134
-0.06166234173105561
0.025629187960679135
-0.0031416122306329956
-0.06630501319178453
-0.0894986735404941
0.0026401824769697077
0.060852153497712336
0.016759420972510847
0.08516463081645176
-0.031181918209315526
0.034083158060493494
-0.09465652225931824
0.027584172626412547
-0.0655819931813658
-0.00519220122706001
-0.03925431171672441
-0.042677489235527034
0.09511127855500096
-0.0022793031922108092
-0.015299379225204735
0.052826170305137046
-0.08358043137285459
0.041946333385682544
0.043481436986580885
0.043305607417569
0.010444304418344826
0.10386523963672814
-0.018804111358508895
0.15787066361977387
-0.0370081063622223
-0.017719747251661824
-0.024584878189380727
-0.08967322174166126
-0.12730114038711113
0.03029955740981056
-0.06971679449990086
0.05495606426920638
-0.03313338509721147
-0.05539707891914491
0.03583876087069003
0.5176289010864258
0.9641596134980489
0.4620786388070016
0.044658811333844896
-0.07167734036716734
0.024862082882737602
0.05492649735339672
-0.06861088771955574
-0.020473752435558868
-0.00725063232957576
0.0032344009577303513
-0.006512391815448541
0.02771781759285931
-0.025505314839093657
0.013057138106717875
-0.04046709194007567
0.08533104704298466
0.034543666028408186
0.08013475593962549
0.007642489366490056
0.03816906561218168
0.010264317819054354
0.06935389665386342
-0.02388648810582343
0.016928242281524012
0.018846301573422413
-0.023965607395021137
-0.055052632072079215
-0.040417016811211154
-0.04460975199894004
0.01397248153762072
0.00980946059293344
-0.08571493540665684
-0.006101615037150145
-0.00979803535956696
-0.05700624889638244
0.02322328388795692
-0.016786753909467305
-0.010122536109016946
-0.051012097066052975
-0.025031014047606704
0.10259282835053361
0.05610800740518382
0.02237264325569241
-0.02502865098963767
0.04965920036251782
-0.062411579244423324
-0.039168726742229105
-0.016599670470411217
-0.03896632076614349
0.026715561376464792
0.03932561475829575
0.0346621457565812
0.021697316808168925
0.0068805676745081635
-0.04042968202313106
-0.0017331970300620394
0.026664292298029586
-0.003815177642969729
0.004507427330789155
-0.008457103514039095
0.021863980252735435
-0.03670604534532477
-0.00700242117442282
-0.018990308316521053
-0.023721225785053146
-0.05990523422698534
0.030072239827243066
0.01858713384889078
0.00274004664706982
0.029594131984257532
-0.01271481833151751
-0.05903549569081307
0.05544046993675649
-0.06798884162460311
0.025206100939306933
-0.01598529747072377
-0.0870141115579492
0.004441590893891313
-0.008886802363744211
-0.0014365910865299224
-0.09209217200991708
-0.039264822315167994
0.02740829376365332
-0.07343677690748111
0.012127270839808283
0.016539223558520638
-0.04474200230003697
-0.030909691970487447
-0.03671910169374963
-0.03268682624856213
0.05580976382723532
0.007150443599321846
-0.020913350417184506
-0.07186098568885518
-0.01296885523009684
0.02179522639620325
-0.03798190332805618
-0.022781875134468003
0.058607449254637546
0.013037534997963247
-0.02124689669735689
0.02265228643613705
-0.037891280471530425
0.02833409440750564
0.01496760921093259
0.03975259344743748
-0.07215357767401628
-0.035608606312465825
0.007986927266242857
0.014710644293869014
0.10961108968812559
0.054636952388371685
-0.08548744157310725
0.013508911918372786
-0.025510792129056686
-0.03760338356925211
-0.03133528669366403
-0.04874701802148523
0.018075224883545456
0.023491929164398195
-0.0021596823225194374
0.044242425300621196
-0.025752889447533473
-0.08227572339012808
-0.046247928907101964
0.06325223545460848
0.14419982062828893
-0.07436924730649645
0.04370566835618811
-0.07428914154710602
0.051622381006163155
0.018089272765376183
0.03465935545032658
0.017204498767158787
-0.011929207366442615
0.01362467785228484
-0.05191042986006882
0.027488365750461347
-0.03244240348581467
0.06226481839155121
-0.012266935054564748
0.01332584936529558
0.04338800441232065
0.06990961853145843
0.007638662620233056
0.018271556238341403
-0.10546143014530727
0.03507961402793889
0.08603024069699589
-0.054620988336799826
-0.04675911360307209
-0.03273003258186284
-0.004664787079698512
-0.037400390241973634
0.055689342605338726
-0.13765439665706855
-0.047070494986299324
-0.02777789630334451
0.018854328303195802
-0.016199222825279018
0.05678395110934762
0.0434847350465121
0.08821898552245475
0.04793949711970229
-0.03881428396746239
0.05051975058671541
0.03325136838200873
0.07515028389826789
0.07653882623103354
-0.017876733429024256
0.02867916135670234
-0.022429309072236416
-0.03795012249296656
0.007436983142603624
0.05075782530339199
-0.10580644278642178
0.007207721193150253
0.022072399123280753
0.008905499792856241
-0.007036386672391832
0.028001443831985825
0.01612879385730879
0.0769061303599655
-0.058231116200350264
0.04540153929326371
0.0671198386742935
-0.065436390048566
0.06092915741856769
0.046806229809404354
-0.07210780496391886
0.025442143650415167
0.025966874104395323
-0.07962763605873485
0.0005891777748641988
0.052510457603943086
0.0070740921990255015
0.009145405188929269
0.01921338476790496
-0.029842124237256032
-0.050147117708380665
0.03148612546998077
0.0038287954579414407
0.07475779936278863
0.014081697784403555
0.0964748362871402
0.44673735559206085
1.0138273640216686
0.5399776924101743
0.08728975245790882
-0.08494598430386856
-0.043522531716481905
-0.043999365861728965
-0.10645003314216328
0.04500961419647111
-0.01597694536926377
0.0022229125470433816
-0.0403710305946731
0.06950040688082473
-0.005213048712957674
0.0308629794940897
0.03465050752648687
0.05478785221057483
-0.127329716507339
0.05995452289260064
0.030093044816226294
-0.03610497994241831
0.038523511606566335
0.055763887585673626
0.06882776219469117
-0.10171139151474945
0.005238210935086439
-0.023020617665876167
-0.003733082554554742
0.033470399192095455
-0.05154648793783845
0.09411411831803146
0.0047181005565421884
-0.10853017300461194
-0.002824688292183848
-0.022456360592265218
-0.05647369035521205
0.07286067973501106
-0.049106000880640426
-0.008345738697564149
0.04455892796902128
0.0029576191833124987
0.034528541839612105
0.032203662391954095
0.02886746520185938
-0.02167229042261259
-0.02840621907210942
0.032108162208923305
-0.014506134803713891
-0.03915779151684762
0.005418184780184145
-0.04204327577352384
-0.002868235074792894
0.07567240954930439
0.0030009988320299167
-0.053924160268758674
-0.04739637880011966
0.07625488890511058
0.017487782331517703
-0.055036288501192035
-0.052362980415511566
0.09798222383653803
-0.04902807919728857
-0.04645650291532516
-0.0018501227114982631
-0.03605874461784583
-0.06962018010095093
-0.027073312341963043
-0.03930390117024441
-0.00976474605987172
-0.009334184670243313
0.055409173621437616
0.05848698566850276
0.002628207496850558
-0.10694718355294162
-0.098902185709171
-0.01782694261524343
0.03430218743536446
-0.0041985443782101275
0.09588082414744657
-0.01669352442750162
0.02075443275413171
0.029204983607677926
-0.04369731808046687
-0.025839146982708634
-0.05917247835985104
0.038638252444486015
0.01546584874235684
0.036365215947093625
-0.027266425960470148
0.0778092170862077
-0.05052093197390735
0.04008777603037075
-0.02097962690058761
-0.0060603732496850565
0.06049643916588863
0.002167091958672589
-0.03074020347075983
-0.015924722467141935
0.04251723117677325
0.03648379696239225
0.01427351053062228
0.02246220617581015
-0.034619057530636266
0.05827532256442031
-0.007764247640530443
0.0257284836424738
0.07044556491577833
0.0461178166507266
-0.04961804099917608
-0.05581491658866358
0.03732634831327138
-0.020277213111295406
-0.060409713865143516
-0.03240140517024137
-0.015537062915080758
0.012898709452656613
-0.001973805565199639
-0.017587422092793355
0.01992307594771978
0.006036262999517775
-0.011665954083418847
0.003016199698397795
0.04313954426116326
-0.06503840559872501
-0.03775474948982314
-0.07398212734154785
-0.0037065863457844887
0.009810328658709816
0.03338999399238263
0.02485636758227227
0.018426964982793777
0.03953476222533568
-0.03725803624665603
-0.005093516657848688
-0.051497730099000716
0.003983003359526285
-0.05915332508615204
0.05760533721177007
-0.040254971207661784
-0.03583845132339556
0.05230899849607626
-0.12478957183615863
-0.03274535976547654
-0.02575976924273997
-0.07764291511218716
0.020159631297514802
0.009051606957197802
0.03854404441428971
0.0009936542870106055
0.025926059806323544
-0.0012690640758180995
0.010471893015817905
-0.01516734051037812
-0.013049795627354846
-0.07506398094427369
0.04969709851319168
-0.018348737683957925
-0.026459922875841868
-0.06998125045862894
-0.02845508808184439
-0.10922978105607722
0.00429532026586432
0.006664998212220753
-0.013694525304384276
-0.02468381529802268
-0.03653764154770769
-0.008477095106313521
0.008594095303847442
-0.02307631889887863
0.04674406107750333
-0.018614183410426904
-0.05672746651106786
0.037352579281488094
-0.07184063455962811
-0.03347877000007817
0.04076808093432363
0.1112832345692173
-0.0443285026325824
-0.05641959599264247
-0.0244075499899373
0.08995888814438154
-0.011172089919600912
0.061826353882226785
-0.0841722339599396
-0.0060193436915771574
0.004945715023568188
0.0004037173795772552
0.006984420713946678
0.021480448377987505
-0.03162031313873509
-0.04806264259287432
-0.014288572691860619
0.006368537287872064
0.012220057321602548
-0.07070660971262514
0.057673789869207584
0.05502566151687071
-0.008193510398225964
0.1325746855099178
-0.03397882302982274
-0.05800347139738685
0.017443964787964884
0.08185131972868916
0.06508165320386335
-0.035067702434593215
0.025468410602655735
-0.07653327193748942
-0.0027173704530333125
0.04296712994712992
0.46956214860791773
1.0151131624188825
0.5750847086437137
0.05192215190807555
-0.01186511790283757
-0.08621483175043151
-0.04060611107501391
0.002343123114743607
0.01237896329257118
0.033475752446037385
0.02292610596844205
0.01369413157295521
-0.017988044727048336
-0.038112768963961756
-0.022375482173285062
-0.010643399209139287
0.017196820039015553
-0.04285211650068867
0.058769309191299524
0.01907351703820144
0.06956816879689673
-0.020039324698669585
-0.05408012975189226
-0.08476985788606894
-0.08765952207179448
0.08800949604429661
-0.009400449111120009
-0.016881057297404186
-0.020974394787032925
-0.015672605399044637
-0.02109258903201245
0.026018613982724523
-0.09403203344807548
0.034006584126265796
-0.026339424704185207
-0.10741670169588634
0.0032399094421327844
0.02855943232078939
-0.02642097738885964
0.02337875558091754
-0.00045333732903674745
0.04319812785962692
0.008877550718021545
0.012562647705150623
-0.007429513896432792
0.08675820137922333
0.0015771383820693337
-0.04411317496531975
-0.09752822057916752
-0.040221787482168106
0.018891624181395887
0.07150597077760434
-0.025838064109031025
-0.029990312656701393
0.18431229496896104
-0.01786990044949614
0.00405815178763408
-0.0009080745113486321
-0.07510007221832138
0.10013750951278129
0.060571763433934826
0.07311834867217962
0.014028596735733659
-0.04661726589073287
-0.10330778725955621
0.00587222305048166
-0.07368502002652287
0.015471389285260668
-0.014163210813832455
-0.0025507130033432883
0.12639539322048007
0.059614412304175884
-0.05458422818197742
0.049437925083751194
-0.03960085097417655
0.02247610139421091
-0.1000696776664487
-0.04779670484507048
-0.006852096354534636
0.030137904076505524
0.050078584093686374
0.009138299378994047
0.045297386231457334
-0.012240581457160253
-0.06711692065158291
-0.03114441653502005
0.009085337601489687
0.05336202884973345
-0.02539149000613436
-0.02763150535127065
-0.09759067066186389
0.10073530502318631
0.03240712199319745
-0.02607457154943448
-0.10214836999137254
0.0032511548931466712
-0.04553705754817558
-0.06134258960888672
-0.00615047648673758
-0.024782010183866027
-0.019295437015106096
0.042314970167488336
0.012453691553527078
-0.03177221973878608
0.05602823015416378
0.0638718821340585
-0.024112133573462605
0.062354251777420946
0.07327943185554357
0.004781042524916138
0.03289668487433627
-0.029008739982142956
0.03826573369083016
0.0123012697157861
0.02038251301527831
-0.015854084962485564
0.023853635282106933
0.03786101727952333
-0.0074544433383818345
0.009866586358214628
-0.044112136329236946
-0.005204901535002016
-0.060713064854674696
0.02124983179178986
-0.09049858453871298
-0.02949206271513448
-0.01763193284895253
-0.0015708024681207425
0.03587164773408261
0.025416881789351142
-0.018606205129149844
-0.008386562825906874
0.09339284718599244
-0.013965175099289608
-0.015140717948084182
-0.047030991348616435
0.06643912093820244
-0.012566846931936493
-0.022171786045155142
-0.06489240148182317
0.026351551988563194
-0.010984025514958225
0.08754107277659345
-0.028226048908753527
-0.01268128507583402
0.01572380213427357
-0.043510388995556995
-0.06560320123566771
-0.0281422451531616
-0.0395308437970709
0.027338305164657534
-0.08534869996661729
0.06632781471524156
-0.08035765603382518
0.12213439675731784
0.13965038154930312
-0.09707084332159309
-0.03466951034624329
-0.013277670065063649
-0.019721132683816797
-0.014857708746478055
0.0395505234618117
-0.07209019598290353
0.018065408623618783
-0.014798980595283874
-0.05941793485688049
0.0016072433722776579
0.05563142922879183
0.08321287172027604
-0.009869445076587116
0.06482982849936193
0.06133942270865275
0.010509966394068749
0.03860614349953754
-0.04648699741793727
0.023482230880764655
0.1368404940383037
0.041543330130900114
0.057335440792604025
-0.0916209825847544
-0.03151798901997481
0.05080642765166182
-0.03573674201021096
-0.006666414484638886
-0.03609640154607318
-0.02728090031340666
-0.03337727120732091
0.07303641587936575
-0.030303901800280343
-0.00853264640654868
0.04364275724886113
-0.0806764566402105
-0.012914617066314
0.010640375414307741
-0.06272008383050519
-0.0226169655718327
-0.01527922807719144
0.02585152580100177
0.0166392169478282
0.01640408768737619
-0.038712385664286114
0.004542993419050757
0.04277590970092464
-0.06423821837751495
-0.10444704806910368
0.00013012452805023918
-0.0944197679221217
0.021255482344862194
-0.05701088953746845
0.0027101302990919776
-0.04985264486479732
0.02832394483794487
0.05384939285430948
0.10790466138914018
0.5651293241516901
0.9401734354506077
0.5226213587996266
0.09801929470517161
-0.058252970948299336
0.011409266590961847
0.006374256630678316
0.05032862311740093
0.00046582159290251143
0.03903363639018881
-0.0800458804745811
0.007987537801801533
0.031431976593981024
-0.08964323303238338
-0.03005783740659252
-0.041011554352744076
0.10220310470246699
0.06395858403370212
0.05335420080331343
0.04106792034889067
-0.09181920903956396
-0.09052249722213639
0.05544770967755929
-0.03847103342475443
0.001048771604801771
-0.053514460683295996
-0.018771447642396286
-0.11215174073320673
0.05145570935025792
0.01924172757848759
-0.05018646255144962
0.03337489544662237
0.044178246970582445
-0.014095922343673581
0.012880184593510003
0.07935019520068698
0.11452337903002566
-0.07528034103713005
0.004351712179685473
-0.02538821099754316
0.009142580729605164
-0.0055934631174360955
-0.058610555446725256
0.04927105858976357
0.07890067136726345
-0.07356698216502425
-0.03972115785631207
0.024511555786776412
0.0064744957721577555
-0.03327403222224686
0.024380108560064662
0.052773757283760214
-0.03974187163369116
-0.026021346199039654
0.018866447828085536
0.1086818010199558
-0.045828732974205276
0.052210134068266946
0.01933570513419231
0.05527486470468643
-0.0025606691494642372
0.13625440708479541
-0.029769271829109503
-0.04153044529927451
0.016266366059582583
-0.03361967183880429
0.027950382321976726
0.011168110308985558
-0.04664011675479046
0.016254883521924373
0.07738800504562436
0.0016443297521819352
0.10710876157830129
-0.00798632403094042
0.03883432938497382
0.010204547836528462
-0.11549187027367312
-0.01279114096721645
-0.02763537304539884
-0.01704972484755597
-0.0550773602006759
-0.04935614343917316
0.003267208580363574
-0.08150288327831323
0.0641836398049671
-0.012172482981443552
0.046047587006600686
-0.049977415568389964
-0.05928844671310499
-0.05441221801883538
0.04064922865405667
-0.011849495751667095
-0.03247564773025357
0.0671394941713966
-0.04029230142544473
0.04651084670195617
0.03444377909662019
0.09554929254131322
0.028640899783115355
-0.0009159500702371425
0.08004635875516597
0.0384408254097955
0.0008570598492394369
-0.0066615280314037024
0.03531696091346178
0.011574474961487377
-0.04417494816810817
-0.07204624723040069
0.008695698588016743
0.02033505396774195
0.016344553744121224
0.008019582471231135
0.08411389993810749
-0.04088899249536693
-0.028943951187315953
0.03740051562573358
0.0027862315608657654
0.04432750333908893
0.04639939960071892
-0.047852750757049596
0.02897034314937614
0.02506418397700021
0.01917238689238053
0.1230799422591252
0.015514568131066775
-0.003109720322779772
-0.0027254580248030724
0.09919746656180956
-0.012416298910241569
-0.03560379027950527
0.0037130245196725226
0.007211049548369982
0.040940400920226216
0.02860706991473354
-0.0742673208511694
0.0008839171795817568
-0.006303027113804198
0.006165724612027638
0.046006695924243515
0.03234834834403867
-0.03587610199791046
-0.13348608628585615
-0.03664845637934428
0.08433809305570901
0.03428364027510539
-0.03966187979012407
-0.005303294806691155
0.037109609747880384
-0.01709647128737879
0.046546782750615086
0.04501013534230573
-0.015394883497113718
-0.03402927617730963
-0.0906724135003225
0.010217272875032005
0.020148969124034563
-0.05440306501188755
0.0011813728470182784
-0.12514742577338772
0.03339545897021206
-0.019811465593922283
-0.08223820217276
0.05385032333709397
0.010640701672449038
-0.12251456169321882
-0.0075282034308428725
0.03650341039011057
0.029050862589582817
-0.020449043604560662
0.005137639766783186
-0.09187078170067181
-0.023008066660442073
0.03400431831463809
0.04656058391440814
0.015685008647829266
-0.04620929500667463
-0.020007360099083875
0.12140312975639862
-0.0011766352210963562
0.0005488772821441879
-0.025542252708838434
0.0331098497554364
-0.006923746333009871
0.03634330358895401
0.048794407079282856
-0.03161637485474852
-0.09590141030091515
0.06073346715928673
-0.056058724488229364
-0.015206303241722542
0.05700689639625644
-0.02122493847905526
-0.015865421373245748
0.014476967781947467
0.06593375214694717
0.06304756682221163
-0.01949748014891032
-0.012308486631631484
0.07048691266722078
-0.048162894012142736
-0.01706222632510569
0.012132177141247192
0.06575808389666464
-0.0068968912539103845
-0.07729667758778608
-0.026257414968498385
0.19759350444004115
0.5163161200487888
0.9712032643478006
0.516492535484742
0.12228411076213493
-0.030327388358697256
-0.004665927942072704
0.02778367219265833
0.04736610761277088
0.00728973298818637
0.07915514924757105
0.011354610554319716
-0.024778934647107356
0.09356682208521372
-0.016644182697203795
0.0202745514207146
-0.04294878098728739
-0.0023931541578178827
-0.028965959417753026
0.04942009366692545
-0.027742488711320235
-0.032775262704840186
-0.013156014298147126
0.03609526580126534
0.00270815435449276
0.07816700684724315
-0.09252143307794194
-0.0487233531674018
-0.020701796360322735
0.029124516009080705
0.0033694970508424287
-0.013274342522027595
0.07484176642167065
-0.006471749830901415
-0.046585011414337435
0.007169732802223554
-0.0023988285759933923
-1.0012523253976948e-05
0.09205286918091271
-0.028914700817074437
-0.01413630104088898
0.10044391488903003
-0.021572042343014224
0.05236446595346174
-0.022113926411776466
-0.04115440415654417
0.04551191491162009
-0.07969513664387178
0.07032923056229466
0.027705872728544436
0.016328656542455727
0.11801120826421566
0.08592274957424893
0.05487161145053104
0.026727369492386424
0.04593489177021444
-0.010252034814476563
0.0001231592909730235
0.013687808248911137
0.023532611711372234
0.040909986894662964
-0.00962879885264964
-0.05406917316206329
-0.026537505794854883
0.03616451813017828
-0.03949238998247438
-0.014948427053016966
-0.03233339017359563
0.13878351841662015
-0.0020591995994566487
-0.055424569550024595
-0.04646337787169849
-0.013411651788802723
0.08317337471676857
-0.055548879887745144
-0.07330809972996952
-0.04277889645606655
0.09931078924592494
-0.0686779466750389
-0.035457744821607205
-0.06489800561439989
-0.04049819591837186
0.04393232802753427
-0.017052946418513033
0.018695660722862686
-0.03723794258609032
-0.027736087439760367
-0.04263296753961062
0.044921985393427566
-0.04647487057653632
0.09433226398790617
-0.033000625490472106
-0.028922607083464766
0.032100403667822595
-0.00850882812187443
-0.030255769118864365
-0.01669412957871413
-0.07449938553746623
-0.04056943536896862
-0.09825128877550415
-0.005730968176752477
0.03758247900283221
0.05061381971561111
0.05623834198410709
0.020704309042443747
-0.007477005505021781
0.01752042762048944
-0.0362129379061113
-0.12653225515138763
-0.00853814973462678
0.024486782078846095
-0.059280281281811176
-0.04016910265744237
-0.0021816756821339705
-0.060457862034673585
-0.023350775466543044
0.0011416449983373282
-0.014976763070337504
0.04132845077798357
0.046286365673824034
-0.004847912353031844
0.0009486031598832707
0.04858546726537164
0.07819038675269475
0.05078225537982589
-0.012509836108119829
-0.11873177128608876
-0.07624816934756619
-0.08475302494685806
-0.07405893156055258
-0.023154460088596687
0.044320908409836574
0.011080712851375405
0.0001816390683477122
-0.04498336184110145
0.022122571171796893
0.01753083166357878
0.03491158020005274
-0.002041727683346206
-0.03090215958404225
-0.030127883976124897
-0.010184237713339303
0.12406487020794543
0.048648452904341666
-0.008859060053790889
0.11137415508617952
-0.05619988843812304
0.020321505564566647
-0.0648699689882679
0.004989820288744112
0.033185596267627786
-0.05606228635612828
0.03420702431604949
-0.024903309029958482
0.07922368275323374
0.009828514591057708
-0.011470398554564753
0.1089570150820624
-0.013950175646312344
-0.0011745841459352886
-0.013905974942144803
-0.03366051180161615
0.035242777168134364
0.010040405817740199
-0.08246603338574801
-0.07414126301589911
0.06580439253041871
-0.031515705159949746
-0.03018837408147071
0.0395374002275679
-0.0326032998161142
-0.043856468397460734
0.005087510077644183
0.003756200755403721
0.015702863651236774
0.1071845412812324
0.07450624067562665
0.014643671353509575
0.03578766269571645
-0.042002142865327385
-0.004539833781822438
0.047622404280722744
-0.023191342025074904
0.01152368879811222
-0.023300278223942962
-0.04928406636809695
0.004802668158801976
-0.056282695909686764
0.048495986202008845
-0.028214258607092865
-0.012245097051404311
0.05826399900049491
-0.020583489197508992
0.11940678380478782
0.05915387811026134
0.0739067748971139
-0.0058805132298556445
-0.06522161862917968
-0.015982484892827067
-0.08156921170995104
0.044085516010095124
0.0344225948255968
0.5274120385571615
0.9636624546026104
0.46590319591608215
0.12064639565294583
0.08502988392596772
-0.09023606593329651
0.031181207558563045
-0.0621452892918051
0.07540587825796302
-0.049326241895739475
0.10173894773769641
0.009238594345418604
0.013299634358383137
0.034356804084717425
0.01630987156661011
0.015108665742014867
-0.06017269901558775
0.0668052987979562
0.11616251605299875
-0.053721709652176014
-0.004731143502250355
0.049425360172394586
-0.11392819446601554
0.029531093821012072
0.047582958164804685
0.01460671871748484
-0.005158570265249895
0.051172639579241896
-0.01501786188931274
0.009546871517760016
0.020527111683155547
0.022224671519495823
0.10517378754269023
-0.05623516881597044
-0.018065114540213093
0.06257956761480793
-0.010980604995179968
0.055514417091181247
0.08229885186276967
0.0028693078931353107
0.019803753340048122
0.03123230680235486
0.002862719361902359
0.048920125074416065
0.022837789904580106
0.07454420273295707
-0.08977344758851953
0.0020127767152227027
0.08672884771176592
0.004084492026309191
-0.06571297818211136
0.08803065689823618
-0.009877197533909218
-0.07014550313694844
-0.01900389462474709
0.0219657184534538
-0.007922193058464335
-0.031520280269453804
0.05032910127733802
0.01729983668303084
-0.011900744096878794
0.0131913745790714
0.0627040568426462
-0.06106555826338919
0.02555599176151754
-0.040214295578974185
-0.03299686703060294
0.0038718048955509498
0.02657313120233376
0.027074043039087226
-0.02047443868452772
0.04326188786727991
-0.05818566092954691
0.04024352295478424
-0.030595065972857712
-0.05040741018598935
-0.0508760091657423
0.043640987018930266
0.08182331581076373
0.13260486657673395
0.021765107156704638
-0.05574607275306031
0.019277723292736554
-0.07430447576592314
-0.0415502185149366
0.04607052793115006
0.031563259467407005
0.009643956201678544
0.059584420210538704
0.07310021801699776
-0.006352117830781739
-0.10965683121778805
0.129664878676368
0.027452746334661576
0.02686506725437703
-0.031854873618521594
-0.06366591619464472
0.0063797751257353465
0.07467752897672572
-0.03757396502442899
-0.005060507547045661
-0.02989889504276691
0.005514008317414402
0.0120630277526277
0.007075616328413363
0.045455059586267256
0.025694633487875342
-0.02317070698654078
-0.03879851257390032
0.12911492273342348
0.015887753688766826
-0.0187493663712106
-0.09406992512361625
0.027300954451279072
0.016838908717298116
-0.041327375716310434
-0.059520117591100985
-0.011735774483709493
-0.05035360951593024
0.004019904430844943
0.07332305371792708
-0.06529217078860226
0.03174736399512134
0.10947289269630528
-0.04584720872999438
0.062212716002977744
-0.03653230826365844
0.017358259572794837
-0.016329943284278673
0.011949935376325847
-0.02252109690658312
-0.08950392030097065
-0.022874914333744636
0.03957040165333441
-0.11182246720662262
-0.020035452847812704
0.01999539962090538
-0.05258433770051155
0.006941139896874296
-0.007207277782149137
0.017220006546244556
0.03921179315723002
0.026278851513198198
0.01845735739986567
-0.05067178053249771
-0.06968183367741419
0.037452961127499976
0.044449434326136655
0.038208349457749285
-0.0031070266819523116
-0.11410947613182734
0.04055259768516949
0.04087919371318073
-0.09271738546739439
0.04444217345706262
0.016677280794826256
-0.05112772986291837
0.03242449999376231
-0.030329703485665944
0.01613033979540223
-0.015618438003178053
-0.06483323255870942
0.06887410959168792
-0.013483483152115894
0.004518863491645111
0.011635300179079475
-0.01806611714854041
0.025086371346070488
-0.02040555140400024
-0.029403399479237032
0.06108411739460992
0.061315791669740244
0.05036555308254127
0.019321653794267753
-0.034006354890403684
-0.007386577626161
0.09291739487906438
0.0016647002643487702
-0.011157993075348802
-0.023063921167695886
-0.0044836410822721665
-0.023642418260838977
0.018700877613473645
-0.04071609946220615
-0.11857908974666541
0.016966983497148803
0.07931313377779958
0.09353058336382386
0.01561726523257964
0.09203812595076527
0.017865520812464782
-0.040576148579638725
0.018459823731014825
0.01090108638443309
0.033825275079803305
-0.018239336722800033
-0.04153184065113106
0.014804367507460801
0.05819657536887421
0.00671582256951189
-0.021938447795752467
-0.0006176548914641831
-0.017674111079399972
0.04700902906128352
0.06381837533541619
0.03794535460696788
-0.10153436091231181
-0.04645431871811133
-0.013035148431054702
-0.020341391565049226
-0.00877418638427466
0.0921992537823149
0.05025046165798613
-0.040975471388853046
0.10901447650468124
0.03322695423089847
-0.005932957977457187
0.5733336379609568
0.9875382072316876
0.4435238289435146
0.12888831010461355
0.016317747083928736
-0.015379843232033105
-0.053685403652079015
0.011545897480635642
-0.0074787017031559795
-0.12117315497214234
-0.005595941011633111
-0.05582991226125224
0.025081067929632023
0.023566527488719638
0.018270034019199074
-0.012972715389223503
-0.022945177944733816
0.043891059737860734
0.038275672894717505
-0.11622497593509257
0.018445415820930653
0.00529905708924772
0.001782891667409494
0.07053518657720491
0.03809558701709902
-0.01152460868642623
0.029542312476693186
-0.011778413619450418
-0.04794872105742132
-0.04317123919714953
-0.02286563056075431
0.006354778254179812
0.02377733520760865
-0.04772146297791213
0.03659496887810295
0.008239213166418333
0.03333724349156875
0.027707154969245557
-0.0033117303978478876
0.038907853335832694
0.001755636919080504
0.07559755087144043
0.02969154701565517
-0.00913106831257624
-0.016629563693560025
-0.03113878424841164
-0.0315523875780519
0.06843960509493861
-0.009895292392402841
0.0012423284662354988
-0.054484862612056144
0.06519076146779047
0.05085015643627766
-0.006993935046372435
0.0006239000929040898
0.017532760803915498
-0.043388448270771214
-0.01814890881477234
-0.02396215485819675
-0.028435315420449747
0.01048451363903084
0.006583272568747781
-0.001211298714509595
0.044854843320391274
0.037142573245480155
-0.08314412168788299
0.05894416431359948
-0.010840489747716675
-0.004643514833555625
0.010943093231066648
0.0029562642719405475
0.02332550302902928
0.057954375392443996
-0.031128645496417265
-0.026594261494514618
-0.06130646796277004
-0.08747177577306676
-0.053252880084353076
-0.05684582662775112
0.0030984728447461525
0.02694950178386753
-0.030625471296505252
-0.050241465537023224
0.019262959178643155
-0.045251549420914604
0.04048674022884819
0.022203088196116518
0.03004081629522939
-0.10208302196908359
-0.061532116996445396
-0.015355121815615365
-0.002900399492338372
0.05526448753459639
0.009026221309327315
0.007628694772370441
0.017373948160858625
0.022661765684666994
-0.04290922086501904
0.02626653213822776
-0.017538021258403372
-0.0003927729158114183
-0.012283862259980897
0.09945081876325722
-0.07190974510137775
-0.018645730819447436
0.08050452109631813
-0.047982593812898905
-0.058039810909053115
-0.010980149407171982
-0.03728281688793363
-0.036967511609383406
0.01758845267827583
0.044995873970010064
-0.05669394538661078
0.009277673617934723
-0.06739676308687959
0.03592312954529363
0.014202229790409205
-0.02215978857525401
-0.034071194992477745
0.06911766875348783
0.06133952760793129
0.050280164949174457
-0.01638251352090162
-0.08844922211984398
-0.03139706267534734
0.0992527141208949
-0.07032538458504047
0.011447697077773735
0.0034551334384745266
0.12736969387937075
0.11017108469171817
-0.08679008535746964
-0.034464400228019824
0.0005637031793057698
-0.09269864599105299
0.03522645124999414
0.1430974829613563
-0.05168436085077216
-0.10617247264367535
-0.10837211397319808
0.006068027360879749
-0.10394804995486379
0.0270038709308358
-0.009349642421062138
-0.047251199215418635
0.05287125046438097
0.06904121555505734
0.005828731681302459
-0.01817550794830814
-0.01282539134908138
-0.05581897881395553
0.05153997107965527
0.048184740189169434
-0.05732468143431274
-0.0007864446757942655
0.050939833981571904
0.00171639077913894
-0.07040309603286642
0.017174936184326153
-0.045481551303878605
0.06527011467685172
0.09906550661869588
0.06039882476243206
-0.0068058183951167075
-0.06069122511427623
-0.08536772722025728
0.0033875203769820755
0.05892858961618272
0.07520982984599053
0.10428280845216534
-0.04889633541651675
-0.12034634279231433
-0.011290862679202988
0.029734093107269252
0.024959812129080244
0.05582627031558382
0.06564084388210571
0.007849521898037939
-0.03139195712647777
0.011500477144085135
0.036345613481499374
0.022436235221221262
0.0047663218293261395
-0.04205320766172238
0.004376362396306943
0.0875362622083878
0.05421731930281303
0.032279640014503154
0.05015856177924702
-0.036121255801276494
0.045915305229794014
0.011160344557643469
-0.07339610623875945
0.025296658744323686
0.044204726215569354
-0.00437889149784668
-0.07547771683180458
0.014863686238578522
-0.08021887459056821
0.08220311096712402
-0.028295760692673196
-0.02856387175754073
0.0030589188560478774
-0.04914495192654167
0.05272636664077736
-0.027023235528429085
0.019429477795765274
-0.02661998260419789
-0.0025802232470635666
0.04250194596616013
-0.05339904627646749
-0.02055703482241287
0.16412510322305862
0.49584887621190854
0.9244083710597537
0.6364089307937063
0.11906488322420879
0.0009626428487860186
0.021699576508846304
0.04621266457987572
0.010720829596025144
0.006125443092314283
-0.02312533291857157
-0.03719832063674569
0.082435240550866
-0.009849192443084064
0.0019786419579849303
-0.016080351964741328
-0.02133040011204919
-0.059690895555172055
0.03404733438651078
-0.08603852145812697
-0.04018326083092866
0.014287492349789988
0.0781032323168985
-0.02838047590582382
-0.03863823910592598
0.07546923728938765
0.06516663561353103
0.041212680795698134
-0.022669158240629365
-0.08102220536713486
-0.041812925160051966
0.03940263925965597
-0.004860275906542883
-0.03668090209680582
-0.10984057716068721
0.010436147705346649
0.0864406061236848
-0.06262077058741791
-0.0719963346981715
-0.06514190563973503
-0.05692327042944184
0.03096386818634902
0.06593837820796787
-0.037734453170754315
0.033087349881344555
0.0118629301315505
-0.043434398978910056
0.08068638597700784
0.0061095705054362865
-0.012791384336279158
0.0162171673581563
0.03809485654354864
-0.03834117062283308
-0.06396820505437244
-0.07957522281636448
0.02003944716211945
0.016917611187609243
0.009057949817644127
0.038700907855088174
-0.08755153415061993
-0.003966886250651907
-0.017147121143934414
-0.06677941087844853
-0.04621549043991487
-0.024809659055580538
-0.01663995154346386
-0.016601082633018863
-0.03195297603468261
-0.025019613597852694
0.03443672230951963
-0.004571779405393591
-0.04678318487942468
-0.018662259676118176
0.04851132581351763
0.09543238344848745
-0.0061374577379130855
0.029050804736290306
0.03006817371270101
0.05837455955529284
-0.01991506457075596
-0.08669830789633376
-0.09314956441544192
0.009608785670409889
-0.0015138967215439804
0.006994181126424407
-0.03938196985272293
0.10209391934906026
0.010983055947017678
0.004794683016484125
0.039438318230444254
0.01016357111638809
-0.015802865821587565
-0.02746941436892258
0.022009530479358295
-0.024970257159142393
-0.020844042315144903
-0.006478748736249991
-0.05051598010129467
-0.03352387150455021
-0.03560807922909418
0.06260862415926478
-0.05709479675330995
0.034261911589282656
0.11143548466857263
0.05863014054294163
-0.018699364220477032
0.06079347208158873
-0.09174944456052923
-0.1805131490613213
0.03034588568002923
-0.013772390013576663
0.03878882264964702
-0.033041445692652216
0.02875223501981136
-0.005888953093124939
0.06281376691087802
-0.04763316657651785
0.09707609248002459
0.0241140709708837
-0.0007408612570763796
-0.06117338892311657
0.03201543974262629
0.016031742740504017
-0.03914266317233779
-0.010989445320116156
0.016441500664455013
0.003778112164236798
-0.007023024012220203
0.03584338079327489
-0.04843228100338703
0.0017315098743662704
-0.014826769037623642
-0.01483399504622384
-0.09133218989216738
0.0883039146330434
-0.07382642467997644
0.08269447374824156
-0.029791179032649603
-0.04080436816936589
-0.04412252286970478
-0.13114961722360116
-0.014331627121704242
-0.033281371006605366
-0.021060556871956824
-0.040422917897396805
0.049271963110237633
0.06182814169168271
-0.020743829845563392
0.030214938516503094
-0.058062954156765406
-0.055228661758740444
0.045034145939207
0.0012047821354588333
-0.008487614918898023
0.07753965940123969
-0.015997151618757793
-0.11508370951111149
0.028932695795761788
-0.019785921957816626
-0.05034407667961838
0.02285782348560669
-0.05880404302282976
-0.03758309933416407
0.021878179349682815
0.0072922797542435275
0.027750158802027653
0.027335961943665395
0.054501239314497255
-0.05311067467212027
0.07883954430306456
0.02069394104774362
-0.02464694755093114
-0.05327672316374632
-0.05080679359886051
0.073722421360877
0.03959367860474146
-0.09237688591102021
-0.054793350700819345
-0.079197318231048
0.09674271551914973
-0.08165077376429693
0.022077023457441818
0.004832120680125239
0.10268556341729883
0.02979628597457561
0.004513251780231068
-0.01649909641583191
0.07636248170571519
-0.03199065434262012
-0.12915688411719728
0.08544327575254902
0.10450952656810958
-0.024730232307895252
0.005196492205730739
-0.1579005873836141
0.00020278110101101598
0.05228538988061459
0.006650662942162127
-0.022418869972789763
0.010670052379055352
0.00045976616347158253
0.06138663725283629
0.1001548522141718
0.41371441948562
0.985600611613921
0.5549256508118623
0.1057266169361092
0.009357708549510261
0.07020328475672759
0.037805803937589005
-0.012221887301275205
-0.05108022175910916
0.01209262338362939
0.023080792920555933
0.02995168147828406
0.012606949643762353
0.029091836773573146
0.02786937393229726
0.040002915531021185
-0.011960973168923805
-0.025072975860986058
-0.0046093743137119916
-0.0038851972697318583
-0.005841527054322776
0.011394914984798499
-0.040313379154462606
0.00667569291760609
-0.043743063908211574
0.02854053598059705
-0.0016057064518024949
-0.022466824628031554
-0.02039583876101974
-0.04279683044916653
0.05101286099367165
-0.05857893013051051
-0.01139889427431809
0.035871525463498664
0.011289624659440424
1.0151202796981419e-05
0.01653249141257833
-0.03380744649672554
-0.07180178029063669
0.0015401055762340676
0.055716594727707805
0.00963973348590343
-0.018952761430202324
-0.10494412128003668
-0.004588412503772075
0.027440611010970707
-0.0033765564160774097
-0.03426293537329749
-0.013977662056552587
-0.00791499342114072
0.10965154241305888
-0.020333614043669117
0.0538295963634013
-0.021416909706338833
-0.03129094926812075
-0.006728887966791299
-0.04004197466458973
0.04202973836175067
0.02187730781818862
0.06935344519878414
0.0007300415259381225
0.08418938947412656
-0.04650342484905349
-0.024084113667262135
0.03549613788967766
-0.08034460070113976
0.07756786463792205
0.053806960884612655
-0.02788184925972902
0.007393656912203546
0.021886238317976446
-0.01279984403857567
0.11198266506115961
-0.01018865560509989
0.015015668500606533
0.04384763178199472
0.10693461509130736
0.10607407403637964
0.034487393528362116
-0.04507492011854394
-0.04775650310822843
0.00043046283349266746
0.011529378442417703
-0.06739714515673234
0.013862310829808145
0.05603651768359366
0.04554978474902152
0.0033519753866918193
-0.05185901240338843
0.005757897708611959
-0.014486650329566511
0.09191265520247277
-0.021502762866807662
0.0377246493301915
-0.0008355950841100793
-0.012593064314046963
-0.014579928116237395
-0.005771987788256816
-0.04288999113787856
-0.01880576122772104
0.05574670527497159
-0.04438394902465728
-0.051459665111248436
0.0024204897230062222
0.07606106889794184
-0.006500071532553044
-0.003764034594356186
-0.047370374371413435
-0.09814615184238767
0.06836733904720275
0.06541922408849621
-0.011736736133828883
-0.04626237718795627
0.002358145987451319
0.06025523483889599
-0.06265556723917169
-0.039264165076441954
0.012525014499821317
0.07088989837472905
-0.09902375092791771
0.014738802665564963
-0.06661460175745747
-0.015099874910164396
0.07066041934110202
-0.05601264257919047
-0.02565424447927154
0.03141540159781786
0.011819177735004495
0.11257605425522395
0.004117240520983486
-0.042766029632015555
0.028467380262023303
0.03678095180472218
0.06781542827120245
-0.018903943334166784
0.013868551454812406
0.07471358128504074
-0.04959220464564796
0.08855559976917377
0.029375931762704255
0.010742967230663118
0.035423760868572046
-0.052762437051313255
0.015034457736392863
0.10827802097601585
-0.011901537167092413
0.03542900072142965
0.051578710252759445
-0.06296034492425144
-0.05613562262169034
-0.05160517548168835
-0.003381275827124234
-0.006029740779579823
-0.04158183022214538
0.0819241247902988
-0.014339920917599967
0.06499965897457834
0.011925551749920481
-0.09872493397279
-0.0601329355252129
-0.02004529570860381
-0.016134620892561558
0.029602715617934233
0.0638914593330948
-0.009376085129973288
0.0345739970977755
-0.029501864956757058
0.000742587713193011
0.021309559478462924
0.060374354767005534
-0.012770924098130819
0.08430552011497378
-0.031779367993724446
0.019991013767745223
0.019318526073505354
-0.0009003189916507511
0.06005709089383304
-0.02861535693888231
-0.026527711798302156
-0.006931704053063104
-0.028707063886916125
-0.05305811296486201
0.09325772398021975
-0.0027283135363923103
-0.04442900286661404
0.041547884568639816
-0.0041299877652189836
0.021347308552061545
-0.0984320552541675
-0.013409177395173675
0.0490466690113525
0.028377936777986053
0.015161277944373745
-0.013389676305155538
0.02577238391643648
0.0032729429259355496
-0.007102168998504119
0.0026568419652822986
-0.025762266001163922
0.059463004278383226
0.5405077739267038
1.0205464922975376
0.49014381127361356
0.04484779811752865
-0.051446478908694915
-0.034346718215854215
0.0553394531465979
-0.07277221835017825
-0.009540535224537895
0.049817865102435036
0.025066007850245226
0.0400016809043695
0.06540217841531946
-0.07103823477534164
0.012555225411421284
0.03506712412900055
-0.0365068992520876
0.0322863866680734
-0.03516483094946893
0.01683574959747323
-0.07095318976095016
0.049194785998637705
-0.008841246886984178
0.04119168865494213
-0.04807863335205966
-0.06816734706366936
0.016297562221947774
0.05909606069412903
-0.01330149220873561
-0.023776724320125533
0.037686196480226884
0.025237698813199136
0.011611936037616495
-0.029379286557489528
-0.08471077295555426
0.04312458879558358
-0.06068360409614039
-0.03310470364778453
0.0060470610081995455
0.0029523498172190107
0.027781600391792977
-0.017056398175182067
0.0778311597970555
0.008119689821451287
-0.0814956085296037
-0.020447963555493588
-0.00890031612701948
0.04365021383823178
0.08460544369753041
0.07432628727689346
0.027163343205549913
0.005765391628515738
-0.08293742985016253
-0.038286753007332676
-0.031989122055343815
0.09168705540198724
0.011956701354917233
0.06392373382154137
0.05388239947442051
0.0061967425044757475
-0.03824101551171617
0.09444871953031572
-0.05648345208098217
0.07014795744512191
0.06965725289920877
0.07193231165066433
-0.028043118017423055
0.02588339958577986
0.013445976211868778
-0.03932563119197878
-0.006411972149508018
0.03379387358073641
-0.07488695875890279
-0.015199738058405042
-0.05808560064175942
-0.015661712621170717
0.06159687981602988
0.008271710233075753
-0.009729978230783273
-0.04978575105276205
0.049530317881580174
-0.005044711625573933
-0.06480271930388064
0.013688727366982968
-0.004913317641357565
-0.07855730980630461
-0.01742831766892401
0.11622540502101164
-0.008648092802496964
0.03030317057571827
0.03159172405508975
-0.06674374938785671
-0.011404155327205989
-0.019237559317659567
-0.06685165058480193
0.07106759238617102
0.056356032871038034
0.0167473690274236
-0.014564371656694185
0.022429312702095777
-0.029285313452573365
0.016844996183675617
-0.07384552889258472
0.0158319415508347
0.0691792355867337
0.026643577156445653
0.022485149935634427
-0.0926641484312543
0.044125293086458954
-0.03951562451190513
-0.0253994075652356
0.03631532377836141
-0.04227891762025231
0.010786110815054525
0.004499219290079899
-0.056666325253062866
-0.01714486236294161
-0.03552250640157277
0.07707597127638299
-0.06296757139906249
-0.09470769431651604
-0.015055313053283937
0.025768698186045637
0.05834757777601382
0.0831337034155328
-0.018001629466286764
0.02561736279262646
0.04894411599238124
0.01402381556370504
0.01445085587129188
-0.007075820596485068
0.0180561528345952
0.07214471691431099
0.1020834419839549
-0.06627523242018273
-0.024189353754316714
-0.046955928648327164
-0.11863653906003327
-0.023585434700603418
-0.013616240261767866
0.10725966516335395
0.10479592017895148
-0.030107605982587438
-0.039246480657604554
-0.03812664378732475
0.003399463701445526
-0.09063498773000236
0.003698030615637784
-0.04086068786895851
0.005720543837776959
0.016778410506372753
0.039423142715879655
0.035934021419800476
-0.02098297166403688
0.02997793042994669
-0.0599869112189947
0.006947137204926872
-0.04356549545182518
-0.028254393654406285
-0.015100714851787017
-0.033659314863938625
-0.037715917438246815
0.03224991829776337
0.02693374429871609
-0.07291153252343306
-0.029944798177601664
0.07656264567128541
0.0425883951296083
0.04587338385485548
0.031705079728936894
-0.080246294576118
-0.047244693699386026
-0.04923611840287659
0.05492331037495851
-0.021309954407554337
-0.057368179014865434
-0.05565859896997532
0.13595546011755036
0.023929868983969413
0.025635929668667984
0.02716154536638013
-0.0947298360970476
0.018418036825352344
0.03377069214180178
0.004249172360900915
-0.024519914986286234
-0.041386423251864986
0.0005413158808488743
-0.07993474992985375
0.07023062959648159
0.0633142290889894
-0.014313721744325755
-0.0010118851213219873
0.12225090252173094
-0.022303683623326603
-0.02020186734303213
-0.014219917904799793
-0.05630069766369884
-0.024903602626930137
0.010141756981919303
0.018920345875664425
-0.03165438919004196
-0.048388326661475384
-0.024169786723751377
-0.048559075131587776
-0.024835483056750266
0.01782245723305077
0.019285460203814726
0.011611501854376432
-0.002309617386400904
-0.015080577316495756
-0.052723551571127174
0.021097302988212357
0.015009760170098158
0.02973082715168022
-0.008138961719182798
0.02700750487235278
-0.06015439277797158
0.10923054248287173
0.4976638651014226
0.926237065787631
0.4519400668384316
0.04233954890457517
0.031937323946973975
-0.0857661204720801
-0.05096109178148505
-0.032117371381204934
-0.046390237390279955
0.01227332229310279
-0.017751143313309608
-0.04937111970615621
0.0837733686942615
0.059796590838089095
0.046297647995325195
0.03215824168725637
-0.008063957487194861
0.012952686259644033
0.03619452052522686
-0.018925002130584782
-0.010452420022472623
0.03833566067335115
-0.00334617849366402
-0.11972404687313276
0.06186910313417004
-0.030654071080897682
0.021887841503695965
0.02381704332059638
-0.05675786925724317
0.013012456527116759
0.040088863478970574
-0.04942252799703794
0.02993088118272333
-0.019300272922610832
-0.05487378802530608
0.024906463280760804
0.04806309871502174
-0.11220215664299903
-0.11864045238011459
0.05212127228278614
-0.01647385702766722
-0.00533814846628207
-0.06115284019368551
0.017540340505439837
-0.014594224555185942
0.042314172313666513
-0.06670903914980657
0.06200524539155525
-0.016715417079220203
0.046252110817305174
-0.02881080607803381
0.07499888291561968
-0.03663165044598335
0.035453917311090204
-0.08617743680046368
0.08911028374083019
-0.06538075962561977
0.06390087594084175
0.0031102699675164434
0.04400311568939008
-0.060204894364532906
0.04348937515066606
-0.009470799548805498
0.0258828669151167
-0.07198014272224133
0.01707383933118439
-0.0011225057548588078
-0.010438936871052651
0.023822588508798943
0.04620249810321901
0.09395549807881175
0.07537139917653048
-0.019686751696705
0.06382337345275156
-0.13028606633762893
0.01518845352154418
0.018011423566211923
-0.10881639867085385
0.01710235247792152
-0.05752540517426761
0.0025553576711841125
-0.03854810141638114
-0.020137943996765426
0.04376993034144144
-0.005007937148042905
-0.03942313163892338
-0.03048811456452748
-0.08731249094247756
-0.02606974575394675
-0.029825927080845017
-0.09560296540746076
0.046528353051572144
-0.03872968265446942
-0.04535946729091591
0.06889936016753775
-0.011321980064265946
-0.012369309487746392
0.05907345933278172
-0.069553569497322
-0.09989046954136797
0.07722283997046384
-0.011092815729634234
0.054738974708827826
-0.0032639353660619203
-0.016269026387040957
-0.04910969364543979
0.0663093802946742
0.07557048838125466
-0.03272096927348513
-0.05361082745037249
0.02322833792808711
0.02616492404932709
-0.08260730403496562
0.02954220428675272
0.012564172724343431
0.024548512213447598
-0.016739045950564264
-0.009590810680158516
0.10162097269338616
-0.0015150474620795867
0.00662466487889175
0.034963892803434204
0.0670453718594143
0.053875687625662895
-0.08459574422069405
-0.03895244611617257
0.059810256017735465
0.05455484399141099
-0.00985467982788781
0.07077357750670467
0.008691411066288126
-0.044086767079474454
-0.017733727132425405
-0.050711096835721975
-0.004543582469323042
0.11138236152554784
0.008795325116485194
0.005423488160839603
0.009615957902596027
0.01744968514993809
-0.012929407790495362
0.027496104038171865
0.03808444297837027
-0.07649791264338174
-0.08351623987822396
-0.06945878612967618
-0.030662233378299993
-0.067399813242386
-0.09983045087720013
-0.07457049739444317
0.02145828651487676
-0.05921345058263836
-0.018267634851274073
0.001462376493602026
-0.07202248687585738
0.054740990990635556
-0.038666710165903354
-0.09442654443842854
0.06220778961210244
-0.01967183534200221
0.0005905619963763905
0.02808534100331427
-0.013444701835931085
0.08298257976448992
0.060871904413038636
-0.03327439016633501
-0.021719639980771623
0.024530021393625354
0.05644146116398226
-0.05237771840359959
0.015199604175330231
0.05288803716383535
-0.07557049242362453
-0.06279862883829627
0.05935112346348259
-0.012684878750253831
0.021323694138060817
0.05359428866500642
0.01869690518416772
-0.0034713250419513234
-0.07876233347297767
0.04588389609442427
-0.0010001631454070023
-0.030117402230178926
0.01835162409796173
-0.020051163440786217
0.11767981730117372
0.019965028648140884
-0.015943579634474674
0.11117126717226106
0.009911190143672907
0.002768053251902958
-0.012688572335610807
-0.0546903444076689
-0.07316278759800486
0.027429903875876616
0.01650076908183836
-0.05633720120503392
-0.02320452607728133
-0.03555040988547786
0.01316971149058431
-0.05296011534017275
-0.0911251919090005
0.0415791621595861
0.08670218890127503
0.06222946959514641
0.02628960689789321
0.015679331724956287
0.06877038265261937
0.5329450467201294
1.0012090559799267
0.42065210602972936
-0.003157633025352727
0.028495405848450964
-0.086746159829797
-0.06964114074970418
-0.025307321713140315
0.0034824447063510192
-0.039084198146262523
0.028106914092647123
0.003357880069035365
0.12787771267077933
-0.05497025165368239
0.009309610598611465
-0.021805341309519173
0.03638639347066705
-0.008884856396734407
0.003257408041625685
-0.0614763037353207
-0.01082892065488236
0.024313451478176706
-0.02283523347715266
0.011417405713279406
-0.025134149135152346
-0.017856232586834636
0.07268969344811788
-0.05243447485112577
0.06549965956462712
-0.07554163773841832
-0.045098836237643075
-0.05641340658876995
-0.07675657711330376
0.0781061837808933
0.01799166211277444
-0.07170915872312388
0.05172285556582962
-0.0336122715356445
-0.07067864442305984
0.034805295014993194
-0.0305860652211249
1.0571578497873803e-05
-0.0010681444314863757
-0.05716146435705406
-0.012509104490171284
-0.16254421069298713
-0.01970046779152934
-0.06139832077842087
0.06208070209250697
-0.004583664800294532
-0.07953418672987114
0.010112711936423846
-0.05348399542081879
0.05376685938546706
-0.038846873516603306
-0.07730930019160524
-0.05449274629795778
0.052117710705158506
-0.004894303931534338
0.018105454921073485
0.04160921644015173
-0.009273363430381909
-0.037213433752626694
0.04276870639152696
0.00490425143898418
-0.05196456195207908
0.05579793403816352
0.0015871964007480267
-0.06832125166389875
-0.08435253697547557
0.06518947886991508
0.10719893350704278
-0.08158917373993166
0.0014497155646453308
0.021545409128210163
-0.059851644822525064
0.022261825591845526
0.08467151958646338
-0.0684102984799245
0.039543576764821786
0.007622004240075711
-0.028717110579926416
-0.003396227099829632
0.08577234029121972
-0.03521310757410934
-0.017843630389364342
-0.031570731332942824
0.061188348018136454
0.005489718160171306
0.015668817823123238
0.014083315512313857
-0.04473426620464747
-0.03666770899378054
-0.08742070289551168
0.014900808064268828
0.039298052994406196
0.017284316579904088
-0.0027973052143932292
0.04320066934208019
-0.0012471328182892915
-0.003721730603355404
-0.023430172513166838
-0.01877633250180596
0.09172702086839914
-0.03827290909291378
0.026084066851897077
-0.03753175599604161
0.03357931058098775
-0.033659711184416095
0.023740919175921152
-0.05090681412767231
-0.02225104892060832
-0.09236807072958485
0.15733404031210563
-0.14233041103505414
-0.0559105450494813
0.06717157914919722
0.013804992108330062
-0.04966810768938637
0.0078045536903087465
