ecg
0.030628350780892336
0.02789758192176094
-0.05182494652132002
-0.03567719042113878
0.03189039034883592
-0.08173928669347547
0.07494104470306033
-0.05801535165876211
-0.01866634285418673
0.06115129358379754
0.050493920656598315
-0.1021537406337947
0.06637199038492668
-0.045606212431310925
0.04590544904921993
-0.010434062444023305
-0.013697831809875154
-0.09813678729905383
-0.031789119933830795
0.01982734163847871
0.014977297572618252
0.12753188852073022
-0.05546765964442361
-0.0041866767469694805
-0.014880474914553604
0.06902105197637247
0.09886406256588914
0.02742864072404636
-0.0028175404974426356
0.10150095210145321
0.004651806529181543
-0.10116726636869239
-0.09937706943335001
-0.0516660381395789
-0.001391495767948761
-0.008071832775964542
0.08372074587079421
0.050893893895126954
-0.09306130601311724
0.062411854125522706
-0.06895342004535776
0.01366999317447454
-0.0027829452409799484
-0.03452352357575989
0.020940207016072392
0.09465554227421441
0.07333591219522098
-0.0076641902277174495
-0.06605281319308826
-0.0590440769778699
-0.08795372266315724
0.04176175474158214
0.005579665890981387
-0.02352804810690215
-0.04029019179982354
0.011909260585990475
0.053440234336831274
0.008498909158612178
0.023067542910768454
-0.05366313866463312
0.015010991661489307
-0.023753531363193893
0.07986301329717696
0.05322782103848254
0.023374729357957452
0.028666111493394084
-0.026550488902834707
-0.07371585354865856
0.00798173462342305
-0.06130461668632621
0.024122332288361737
0.19021951849662133
-0.008632773261562008
0.04951677155453817
-0.04240893063814856
0.022941040161920945
0.024752030618484314
-0.028670804841014804
0.040452330144808514
-0.02076343536766821
-0.0005991341379704807
0.052354917429285636
0.0017224775042734208
-0.03545809394195085
0.062179537020979794
-0.03349463588532637
-0.020530353692672434
0.0006649626351743724
0.033477745588244755
-0.006880881026791895
-0.01637187553404433
-0.014925669022511578
-0.03281078758944088
0.03606868709526601
-0.003553017059098191
0.058984138337644355
0.03140153795341853
-0.04747781699245027
-0.00708329138153095
0.03777505371986764
-0.059668998211262994
-0.051040100349080145
0.051492555396920506
0.04867582612300231
0.03896859002744134
-0.018561019353944004
0.07935078217128026
0.013351680993593837
0.011687965346518205
-0.02261977730326935
0.007896345632061682
0.015267263734307252
-0.02380635133228239
0.033211794270357434
0.03207842955574357
-0.000966393522833455
0.005457082148057155
0.0047285630812977306
-0.028039298597397667
0.02848017648304127
0.028816566729601246
-0.022320673380722383
-0.044288948879991144
0.008931508137860358
-0.012915708861102741
0.07932324462312179
0.015037098527236809
0.025541877102575467
-0.0933247379118088
0.031162704302669954
-0.012751130845558024
0.02222105467727948
0.010446992817048808
0.005090404394722445
0.032001526556696434
-0.056108534453651084
-0.0412364097075641
-0.06563379260921329
-0.08737291646027354
-0.052928100658587066
0.02695209920504998
0.0002620774325681359
0.058657964113462926
-0.06080658368853825
-0.001961729450321186
-0.03746962057840756
0.008335923779452565
0.04828337305382449
0.006660467604995306
0.06762291694143752
0.05195343333016668
-0.12463461073788462
0.023285055258912248
-0.09015865802456804
0.10182410538067402
0.0968144108484456
0.42109364480883804
0.9420152190836383
0.4809508849729667
0.12251852142131779
0.0312831922860815
-0.0031403734696293963
-0.0686211429952077
-0.01759496623578993
0.05504030289597113
-0.0893945688137267
-0.10811152913414057
0.05088056758835833
0.012335925411545184
0.017696862833853178
0.06095658415787817
-0.06100695337155872
-0.032958035326635785
-0.008350178663404246
0.12670149983977627
-0.06254208828175141
0.0009508427155445299
0.007445711406978585
-0.07338701793806827
0.02100115587854713
-0.08329696264286475
0.039820301360587514
0.019489843908792166
0.10799294605770736
0.0009945403244438868
0.010691698404649121
0.018632292084433854
0.06320785627141501
0.09688487016929354
-0.04142519182015672
0.032695072387438316
-0.03222020534866009
-0.0037339125145353855
0.04388740614987751
-0.009234930154107658
0.03907322875950963
-0.06241467669422099
0.03351881840195497
-0.07123320705965377
0.030424151570375133
0.005500483714615961
-0.0009065039950907496
-0.04891125833084561
0.05793730707498371
0.00744874730341125
-0.022055037473848446
0.0050702242729384036
0.0629803168614948
0.027504778314567026
0.0548928836056798
-0.047424056129816955
-0.04173229297922959
0.05395228969301881
0.017752964524176598
0.010076776601802
-0.16419445959228873
-0.02768545596774782
0.1559705100662489
-0.07222713592866307
-0.09176156170546695
-0.014971864726452634
0.026187689259208276
-0.013474121603371247
0.048788048375378194
-0.09222045882630583
-0.0010985451208461612
0.07843691705448125
0.1215933362184956
-0.03245241923143468
0.08188166547191161
-0.027542132759827188
0.06736356120340319
0.04487847977998608
-0.04979832182563123
0.04126306858386994
0.008854477702015048
-0.04726495454039088
0.012891249481449318
-0.04508403439142114
-0.03572812113507161
-0.06653509834270364
-0.06095318628411742
0.028257566807275245
-0.0016341592771289524
0.002970113907640968
0.020351045189292222
0.00869627068239955
0.017957301855559563
-0.09120214499035645
0.0422979143097818
-0.07584983222675648
0.05143219661537747
0.0828883148692623
0.020984710583430898
0.029060161448258976
0.041350426230475676
-0.049544176959465294
-0.06868077705885958
0.019033007119679306
0.007959800955499944
-0.04921557564345849
0.03413275265675469
0.015398613113316898
0.022788902455330367
0.0870336139366978
-0.06558556128311617
0.039839507347755286
-0.007933572187721451
0.02817665649428108
0.02462565074367841
0.03778332178410232
0.018917190982577492
0.06135110753047771
0.004853226925171483
0.025137869839059995
0.04935945632288459
-0.053661831041544775
0.07299406113557515
-0.06098265357180173
-0.03978924453418703
-0.021006885487725724
0.12615342465061327
0.008507415555652193
0.08225269370344274
0.027033025588949607
0.07470563606989057
-0.16389378425444745
-0.06429741595807688
-0.05898406509224238
0.011684819770644622
-0.16777599216134165
0.019441757791856494
-0.03195979987123791
0.025332727112887466
-0.009131764463558496
0.07820442611146117
-0.00997818284307999
0.01587101690590942
0.055536019433535956
-0.09006397407776442
0.014459189803556625
0.027334584864430814
0.022465525913607988
-0.03270672078693173
-0.017510365033576496
-0.02745922891668951
0.02115102221525777
-0.02977073785365235
-0.074455716189466
-0.01659020827274471
-0.02787557601762013
-0.08142879438399399
0.017484526912325386
0.045958868251348255
0.42693302347800405
0.944457674967439
0.5677607400710744
0.10361118954977791
-0.01145882494109954
-0.025810329743879448
-0.02708140209142017
0.05500670198955139
0.040145100072299315
-0.05528484834082084
-0.06245832136618598
0.04950669953684218
-0.04707830087286544
-0.00884724413283679
0.014946607918494538
0.031874919936263756
0.026586800468660278
0.019543039887281594
-0.05901661983838377
-0.02314874658394651
0.006232719183483229
-0.009771818153362552
0.03755741312336178
0.007948510945429704
0.03815167879781072
0.013521980394015691
0.03969282023610293
0.06106008757078211
0.04781283571810652
-0.06328149277299748
0.015654773985705125
0.0024401612709613347
-0.004746926219944247
0.04151805442116334
-0.029209714062810335
-0.029598219258299537
-0.030676674484209094
0.02985589714155394
0.05612813303067889
-0.045284372452206824
0.10339197791386737
-0.040555753140776765
0.016106453363663727
-0.08605967629001492
-0.011525336587464578
-0.03666535103565653
-0.05366115436757847
0.015863852733797687
-0.0014307036104396604
-0.017053208397535328
-0.016431075750757813
0.03127004505579092
-0.03321038122863274
-0.009119351103754747
-0.011359121577297765
-0.04845338568880876
-0.013928288094207777
-0.020373602626129934
-0.03862378942590328
0.0032613290234899924
-0.008407922612223591
-0.008877954361002725
-0.03563806354213055
-0.07930814995388998
0.015458096360068146
-0.029553147527429886
0.1409407025298636
0.045008293765067466
0.014978321741554319
0.06949462558972623
-0.051449885842903935
0.0830661050707339
-0.04116080195739907
0.041539094341466014
0.009354729281125303
0.06453227136146794
0.04802899965208071
-0.023956500575902196
0.05595458865292588
0.03402164255726072
0.0208348003192687
0.042437539466978674
0.042040543181059015
0.010410711872378972
-0.0939605052559273
0.029321235132559006
-0.03189701384001014
-0.11505578380560211
-0.03613808946934576
0.054623237911817106
-0.03209743152494196
0.034976771852853875
0.0024518513290074234
-0.02536424277112925
0.07912393515599642
0.03489561303651203
0.010341804730474502
0.018197112331082642
0.08940517645441719
0.06358081027176267
-0.0750339300609661
-0.027715609165747185
-0.01878110231171309
-0.05957789320727233
-0.053500906555795216
-0.01614805155359636
0.011161128254917378
0.01476846299498012
-0.005691608455220508
0.07191223856889482
0.019484175461417917
0.11270468538143646
-0.11312034397279105
-0.0506012135290084
-0.06138213942766418
0.009712702162810677
-0.0024149980565169116
-0.08804582458311144
0.018399613256014108
0.007542047338661333
-0.11885557652790374
0.04248509118656585
0.0615745815309942
-0.0339059400553191
-0.018622238757658748
-0.029674120641042807
-0.04049375218007046
-0.0004224617414542897
-0.03232561124930439
-0.01859871797471235
0.03493009862147403
0.0824431524574455
-0.01905707376417186
0.0023894473358277157
0.05167654979425318
0.04244469518225989
0.09880990243728219
-0.0611052792463669
-0.07903207775234485
-0.11472056614944762
0.13042616670897142
-0.07111282828715904
-0.047772793562124855
0.051493330799833405
0.005012377502824759
0.056323662959830434
0.018409428773646146
0.06247270001083682
0.02676114616586709
-0.004730940035037188
0.029616461367434024
0.019402606524001845
0.0430767899811648
-0.0011874525109440853
-0.03571113509073744
0.01764177588207369
0.024375475050369355
0.46144092559332117
0.999324864807423
0.4480115116821609
0.10576649078303706
-0.04336947243603862
-0.03771347922847372
0.02213406317687823
-0.07891900968385354
0.005244705609819866
-0.027961704305515967
0.06419410413540641
-0.03674454362052612
-0.0022060392500568935
-0.005203684128997038
0.0463569402300801
0.05953353719802456
-0.015759594472964652
-0.11081433706923538
-0.001257498009768202
0.06984485670077216
0.06247157115653036
0.07658654009890185
-0.007144428140279967
-0.11019984127041889
0.010918861450927304
-0.01191762472365588
0.0322291588265367
-0.0414218125081784
-0.10664545599624403
0.04607589698293421
0.015257130996485992
-0.03749144016551203
0.0365980299662069
0.10055815618647031
0.014474119798504574
-0.07977807438357458
0.058401344149214385
-0.09792600968535278
0.02025337296767576
0.056500282051806364
0.02442441133895778
0.00894598704311637
-0.00046686192111493915
-0.022381664195230896
-0.014480256499769032
-0.003982194326286683
-0.04934928531311376
0.02247857486232671
0.08543879145300232
-0.006169363768851215
-0.07530953233197725
0.055200183063422864
-0.008353927051037317
0.032249928906246554
0.06535757804315916
0.02300932182415394
-0.10671966622574006
-0.0026173214745867646
0.0046873838349766155
0.08800635353630322
0.025107912902872953
0.03587672140052824
-0.02993445813660306
-0.011609807860983722
-0.010348351019407634
0.09155187440234046
-0.01791328996888351
0.02095027889714123
0.011578172506168211
-0.050346210676685724
-0.12821847921760635
-0.05056759870337671
-0.006384389383332412
-0.029344285346393523
-0.09763064934425822
0.03311086106348146
0.029780678009160344
-0.002970527592853189
0.04894416130460133
0.03669703336957909
0.015538596599407812
-0.010075154493801003
0.06781793369356853
0.04626776737316299
0.08588772654762798
-0.011160512806457745
-0.0583596962653912
0.030162409986652695
-0.0866116090458391
-0.028453676954890636
0.004732397962586768
-0.009157073975267827
-0.033201654435340684
-0.033881813372420015
0.0051910156277390936
-0.00021139859160238157
0.04204239450679856
-0.0036450529142661283
0.01798008278260706
0.02680590960738212
0.09475244045976283
0.03421488082898851
-0.06554808766297121
0.046953775426819284
0.003856880303043212
0.09815392474940973
0.012363819162124364
-0.009738649081314419
-0.028066570502782363
0.06729685297664556
-0.002677065363634614
-0.09799766541671137
0.01411924400396348
-0.05864600041439322
0.10711232576284138
0.05583480270551675
-0.04700539261668895
-0.024404730617181195
-0.035202745918176334
-0.005225956712719538
-0.015797692822703855
0.02300581144298312
0.05947820117961126
0.03269480072518415
0.009739654587450793
-0.0771300929169958
0.007538789050822416
0.054896494111329054
-0.00795932310913485
0.0009414827634434274
0.055790452849145016
-0.0104837768042989
0.020868401660978034
-0.0882977556707083
-0.005265995354475703
0.018173800915552287
-0.06283596436929548
-0.05684246519160438
0.010585746630252258
0.0939833710687564
-0.006460944464871614
-0.017792065878205275
0.00025299107508518676
-0.01836432085579094
-0.008651991188647701
0.09714533857572978
0.016409818173956904
-0.0025086673072275546
-0.01609186415744525
-0.0030937451185370237
-0.003815924001987582
0.009712940348612325
0.01877347588941921
0.06808281683845616
-0.08977752983171408
0.03314765011372304
0.07166135888287595
0.452132584308958
0.9883785554168096
0.4772773981111418
0.14629031976390514
0.04854512637737779
0.022370310011957335
0.02231476798579915
-0.08367452126072787
0.00833892195357749
0.023701354310848646
0.021482247527371077
-0.018368884758290908
-0.07901033078227576
-0.015525972625326982
0.02767950194620515
-0.057698264642504195
0.03666166434733054
-0.08775205000789747
0.021903391266529865
-0.03538541904449976
-0.0006753639910231301
-0.044738506994741856
-0.02666775417102788
0.03772853406606991
-0.032925115597169624
0.04940918600802077
0.08722990815481561
0.06554417737900008
-0.008290541293685094
0.0005595124945197667
0.03603798841788418
-0.023966978726313648
0.01954300002476768
0.051330302462089555
-0.07441402486682328
0.019153347951715898
0.09164147811462522
-0.013992984222972418
-0.006357399316575631
0.05565918597668669
0.054555808007459995
0.01106393154180945
0.00221015102960611
-0.011993967477546727
0.011095647041885771
0.047671708624034935
-0.054518557077514664
0.12922082635570292
-0.022091265002210664
0.10504479367611315
-0.011330357655234435
-0.05650821241398627
-0.028732692482403777
-0.03589265369165617
0.013100414525262144
-0.01339129278753499
0.05994881796798527
0.05157141428566332
0.026890341508649815
-0.007728480698958128
-0.07023214889345286
0.09491059664430124
-0.048568597723347734
-0.09719850542773822
-0.042557866409299254
-0.05286414366073427
0.03934449721409199
0.04865509276627936
0.06013930816975971
0.01904551045608702
0.002420507207562705
0.021047493134244574
-0.03712054047298499
-0.06816990311831722
0.06538466300924417
0.01720932931240254
0.02820745323014945
0.02456608539363109
-0.027752559373952337
-0.01049025685688109
-0.010464193576181655
-0.12216056834443255
0.06928457488223892
-0.07166600217542772
-0.01672613434569038
-0.05823960933136
0.02984592695622823
0.021661338596040774
0.008638601938986015
0.05298824352190599
-0.0655798893656462
0.02595733985992695
-0.016042322679511705
0.010332303607131301
0.032966875303110287
0.0047745387243039025
0.10200319835882077
0.04963380871930548
0.02385661162167501
0.01956504900244592
0.023791524156224087
-0.10439866717549605
0.018769808562766267
-0.049763659269583205
-0.011219766379508389
-0.007824931848959797
0.0018471581249316542
-0.020377696941279663
0.1027865102271502
0.07711252247001778
-0.038321931084570215
0.013296334653602441
0.013594459364610477
0.04833936919392276
-0.08599054469897936
-0.04883898300354683
-0.006780354573244588
0.04224215890180542
-0.04729462599738419
0.005576024111957478
-0.006221946982576849
-0.018004793693103007
-0.019568127169578856
-0.0077984979410297755
0.09387003847823926
-0.009090987465711391
0.10650698315844498
-0.016207422741242556
-0.06110054173874205
-0.04113323651080039
0.07726908388418884
-0.061062820332942774
0.030984517395907324
0.04970457359037732
-0.04111115346934771
0.013651593752237474
0.0752040249605574
0.08144371888785423
0.07516049867287576
0.02671153070595383
0.11216752218367423
-0.05305331755713247
-0.026638635591229934
0.04335339162671078
-0.01174736047523664
-0.010011698502597241
-0.041121404701149174
-0.03659924326783439
0.006736720109106856
0.01970960216042391
-0.06489691128335116
0.05799240285485743
0.04207809406699994
-0.05857835899057397
-0.017395048246047925
0.056901875576088216
0.5570247260925569
1.035205657097549
0.48054736400466375
0.11650184928403128
0.013024134835662636
0.045382552683876
0.09934361416902829
0.009655944219877671
-0.0007899768187297114
-0.06479835849524787
-0.04746203049900496
0.03500986924976675
0.10884268362597999
0.0170008559079087
0.031606438377369275
-0.02635030514217416
0.021485180258250223
-0.033523286277461255
-0.02029941147326491
0.02468780316775378
-0.06241994097303727
-0.019861609981595293
-0.03911654551065449
0.039449807502724456
0.009080696020861657
0.06149869456317813
-0.07288264889193372
-0.007088575780880656
-0.12534404114270156
-0.08354296025691939
-0.018920345617644475
-0.006706917654511706
0.053799138173639495
0.05805232050076808
-0.034276438250149074
0.04771043091695583
-0.009682000288364743
0.026667993326611933
-0.05780233145818975
-0.02790196580925
0.029727781184704757
0.06293344215858314
0.021167757450943337
0.0547946736589047
-0.03185698977395909
-0.033808477726626616
-0.04115499833369465
0.026913777796006334
-0.04391413061977345
0.02419227135857681
-0.010498824888912055
-0.11337163938949708
0.010239779250855124
0.03522379530461638
-0.037988612367528575
0.09119196456404718
0.055587479022705555
0.003669394059276076
0.04841219240735837
-0.04842270088501581
0.06574555196924228
0.0053419472726310355
0.04585740594509974
0.11532882278966786
0.04215448224017593
0.022245140166294437
0.02817987604460045
-0.05186300790869554
0.020531172713956207
0.024709362854881275
-0.03776483585473657
-0.037825332219099006
0.020467418052334402
0.0627696579086251
0.04211259090664061
0.029306573366183628
-0.04149420366169969
0.06827422263248906
-0.05913496008680172
-0.08546823754939187
0.05723469350355295
0.018584017718389315
0.03662104323782244
-0.006823069791829058
-0.05550694270799533
0.013245674125266194
-0.017050761870626287
0.06653413269786232
0.09290536188677004
0.003264789332757151
0.01854993689054614
-0.0034299239466982867
0.03199316199859085
0.06817810200792465
-0.006461110184054892
-0.01539363855220227
0.006193496701338907
0.027092239401661774
0.05991610830246932
0.016069902354873926
0.037720976741624876
0.04036887932591071
0.053085293720380004
0.03331627175572991
0.09181004257280019
-0.0014813873786681216
0.0980102319313596
0.058337818036641266
0.03378700963703832
0.06764833028574921
0.0017839507645213627
0.01714640852883845
0.025454672827222132
0.11317221807948458
0.042443509210130806
-0.010935304929112523
-0.02045901771384301
0.022609581328534183
0.08456167534510185
-0.06637099409690958
0.0780510627898976
-0.009479359521137844
-0.01720508262849035
-0.012117019315808997
0.034222784589279714
0.018939994372731167
0.015760833712544865
0.011597320366518461
-0.02263927851955276
-0.011463138427438508
0.06704682408883547
0.02944920121337364
0.06818280432716547
-0.061615409831331375
0.029104344835021168
-0.024665191334419096
-0.020773120584413253
-0.036431758042210854
0.03258516902186494
0.026132919446401223
-0.09068878154651516
0.08082869842444118
-0.0226630965653003
-0.06588371051808248
0.0870425064705794
0.05503781341812378
-0.012470594343313372
0.015887114596777132
-0.027341584646609712
-0.04473322151671098
0.02243525202073648
-0.06988334194379707
0.004763610423114951
0.016599933993228136
0.006365205995226286
-0.002955215663796437
0.0504485057950655
0.5087845499715962
1.0002973928329806
0.44034382617430157
0.15815077073546813
-0.029411338619548262
0.07244569616632628
0.005613108052508449
0.08604400888477677
0.001387507564099286
0.002678871891949547
-0.05908017501507409
0.002904526595630326
-0.03135270227252956
-0.03471611059265976
-0.05562650860962962
-0.06378728762473672
0.0021631859421147102
0.07176225396493578
0.11159135600358355
-0.0784334270274553
0.09570584897474715
-0.05169176362389272
-0.049649834309532265
-0.05145769033761072
0.00575443210743807
-0.0211254572434408
-0.04276945393230261
-0.043747131042672596
0.009191170231412851
0.023295026050915366
-0.006162938037109176
-0.013564817547183841
-0.03023424945707965
-0.038723994163993025
-0.05947203752526956
0.00088718230786767
-0.08701207143084051
-0.010442009577089665
0.07597095185192178
-0.07081280468700893
0.05908691330712466
0.06599554336562934
0.033450899023254294
-0.0019317191611608314
-0.035248901598807066
0.008958931917105568
-0.009772389935563452
0.008383955224569297
-0.02963952098441541
0.010933338532097301
-0.02950679524953132
-0.056176721357444406
-0.0689534441938135
0.10691397562382543
0.11109871664608693
-0.022031437438444892
-0.06342177999427212
-0.00437327031443312
-0.05376966275750903
-0.030427099610069893
0.03559648948097433
-0.042898937268296036
-0.08655110293632573
0.06078065641776777
0.004822673619861127
0.07433664611578625
0.016501008624548997
-0.03429553020750151
-0.05550552921826551
0.025900575993180547
0.05296775060767948
-0.022745714544192386
0.005789376028817624
0.07464419468667617
0.012473016195304651
-0.057932309814618256
0.06348845481120069
0.008504571599234843
0.055037780696438214
0.05714286927360468
-0.0011018136674509312
-0.07480858198847641
0.03220961228730805
0.06985751887610757
-0.06544253284093592
0.02756208549510903
0.04515229183293439
-0.032764771635081645
-0.043306421312398126
-0.03475560927111118
0.09014411124347924
-0.003941129473060341
0.13494738826515182
0.06571811880128207
0.013549321524159092
-0.03782644462202828
-0.028109629914524637
-0.006499638978053299
0.034303830630828175
0.012873127344027428
-0.040964049245581446
0.04384812897715043
0.01997790308646616
-0.09938130773807319
-0.0482955099004518
-0.02938371579862787
-0.002904093798250296
0.05075776989742281
0.10211664299312129
0.03192968554749045
-0.008330112547495905
-0.0010544820673066488
-0.04440398680538979
0.0070018160544182435
-0.08506104191895618
0.021672768426707234
0.032953722295664976
-0.03777791112522864
-0.052315066966132674
-0.03176093505431254
0.01077847494560396
-0.023171982814556662
-0.045458216940780484
0.11977916253516539
-0.038022545635726795
-0.0152780622043874
0.08681227720643296
0.10570789624736743
-0.14165594054935046
-0.05981753321986756
0.042161341347794035
-0.05091484016896554
0.08426053777589737
-0.077906014587164
0.07667492166565132
-0.0108882822062207
0.04798862502777986
0.09260348075705577
-0.031579624722370504
-0.019910277078660207
0.07282513491826738
-0.006243671190791538
-0.05737385529881475
0.01763635088027157
0.055862599800028334
-0.06521752201951068
-0.02601881855966694
0.009424006118951656
-0.08533717248814426
-0.011278274182833331
-0.12396641735200971
-0.04790703403350637
-0.022262448936948703
-0.0025347175578993297
0.4850663562908862
0.9634881865493404
0.4153311695938038
0.056788308880051985
0.002268924094324303
-0.004765302923608692
0.03496982938518497
-0.01317871249366717
0.039435832077007286
0.011510426686591711
0.022543352979152654
-0.0002262013937077811
0.027037588253567103
4.5568020046510264e-05
-0.07204916442732516
0.03674534020238099
-0.02138871292233699
0.05934800364430479
-0.01834786145753336
0.05698046094057927
-0.01158281953702292
0.019651886251777505
0.0035027116857465584
0.031745176872287666
-0.008962495165845866
0.05734383022646103
0.021395374425789232
-0.018383998531258532
0.05623395693283028
-0.0366336937312341
-0.0537661747001876
-0.026747228085132236
0.03358438038373362
-0.024278902089586038
0.0035972271673332164
0.034975884029232206
0.04071946193278514
-0.06001808586721117
-0.010536383730494956
0.01681268649360109
-0.024262598953376485
-0.014851962802704777
0.012715813627783816
-0.06630952466186905
-0.10759808601618642
0.03448498863185757
-0.04071623273501979
0.08957698392782673
0.050948319432274104
0.039872510207307976
-0.05968301488271956
-0.05627442493672276
-0.02634641100386192
0.06766902189838628
0.030647841400282722
-0.019687887974245602
0.04569101796138156
-0.0721460877414825
-0.055713628694326715
-0.05229689775892041
-0.0035453064719208798
0.09918082526119404
-0.023153563515109932
-0.0375560135817509
0.031744985728597096
-0.037490830793984485
-0.050389639631457456
0.01946699047529482
0.04688387156221809
0.026360793622249974
0.06073449536327105
0.009985327548488052
-0.018778643020990454
0.011473671428025285
-0.02177042683630634
0.02061044633983757
-0.029364504168366813
0.004963713648342582
-0.06815990168154275
0.032454494161078935
-0.060467615163711214
-0.1516689950404302
-0.07210736384936602
-0.03245852903535463
0.04671543173973555
0.040179698071097815
-0.05261974475317073
0.042424115699306174
0.0008710581752831324
-0.024464217370713755
0.08720458624098586
0.041667179973675465
-0.03187958884799848
0.039193025315232784
-0.06469767507607116
0.02120610721585099
0.020559459345893795
0.09332511642567022
-0.04300554615002458
-0.02363097605055809
-0.06003095581619514
0.06502065200334967
-0.08395492374375746
0.057304347851851435
-0.004039870599728081
0.07573657344627915
0.021090225590061323
0.021654945184417608
-0.05899049667052675
-0.012533685732751399
-0.05337806599740591
0.06554218475249228
0.03876050614212854
0.07087214843480678
0.012072171423754606
0.018309930078885803
0.008966006194686375
-0.008808822037038068
0.013785395253498034
0.05280327707134583
-0.015074839730072877
0.07765832986685364
-0.005003131554210179
0.0105661178005289
-0.045658050253655325
0.13608292910603198
0.005316729786963683
-0.05413740677395671
0.017589730309104865
0.056513335598163045
0.018736153828178326
0.010967832751480439
-0.025167075957430885
0.05348780126509833
0.040548536090554255
0.0007248046119570864
0.014746004573878289
0.010414669719526015
-0.03203914269809627
0.04172071701694008
-0.038429158498239135
0.03780080850055702
0.06300349569001244
-0.026017289018650178
0.025744239876511796
-0.05090447796267216
-0.04548791241531496
-0.11263138553757751
0.009864706055760127
0.06978286326768997
-0.08324271977310399
-0.12216954245657621
0.02843593448615885
0.02154778367015764
-0.013156939264536814
-0.014162687108871183
-0.013762016949987908
0.006651959213523913
0.13069861324083307
0.5337552874911093
1.0369877014560827
0.5678471506865611
0.10078761262797498
-0.015730760439691197
0.014909055844570182
0.04156402308035273
-0.04552045953065767
-0.03133476067245449
0.0001621536939414701
-0.03870952823121909
0.0854505700823542
0.0658615986443886
0.03988887396447589
-0.017278278869284815
0.01189413484912872
-0.018541387178780608
-0.026262368734261955
-0.0005744858310744226
0.019280311780730433
-0.07273031079577329
0.05521563849449954
0.05452601108569458
0.05157936421958808
-0.08276473413427457
0.006701972753203465
0.056652953620267746
0.08749160753516566
-0.014912472358121888
0.03483729047409401
-5.358651558791956e-05
-0.016852489865404118
0.1402098078500449
-0.020190688827531875
0.006801999013132414
-0.04159080842996514
-0.028356880409226955
-0.0367404144397961
-0.0032373228286599514
0.010709000847175368
0.05483524086856215
0.021938055709465942
0.03512217659421158
0.04298782098180136
-0.033326618770736914
0.06566180850190756
-0.07789334610298626
0.008128040395243414
0.010429683719214725
0.045979509801326056
-0.011535202581369426
-0.0566942422111503
-0.037320369251261885
-0.017868878629493955
0.013569710195534618
0.02704011897241014
0.018297734076941363
-0.017666137745008442
-0.06131953450052398
0.08890209490547728
0.007672301255445319
-0.02762052192042022
-0.02987867930486762
-0.025315948862838857
-0.001785326116278923
0.023709890552718608
-0.08166000810542154
-0.047296499007004146
0.015100470648002844
0.051274875466002894
0.029190117777546033
0.023498544132581258
0.033723204606802545
-0.027816122157221262
0.09354505651513585
0.012111580342574296
0.0328729138023053
0.010030624524376171
0.06491353588459815
0.06380000904144272
0.040197313058232
0.013038922824002897
0.02790195581160264
0.0527169703807672
-0.0395754095676245
-0.018746819290054076
0.06588826144520131
0.03200934080669778
-0.030722236068162087
-0.04748129560534735
0.008334661567264402
-0.03873262913062907
0.028917567864684232
0.11894162000536722
-0.1327522222253537
-0.0008092721763455634
-0.023429657762112418
-0.011330797230361801
-0.00948357145294164
-0.08265970898653557
-0.06960417387041849
0.031715069123023736
0.03887310040574304
-0.030674070514655385
-0.04748180550973272
0.10268798351006324
0.023019262984063607
0.02517759869788412
0.05504774664908492
0.011798369910749255
-0.05134805376823981
-0.008999647031370543
-0.08929110920750824
-0.05553490828814505
-0.1105327978648789
-0.07402654802509459
-0.013976302032120259
0.011571266867642115
-0.002209736079667925
-0.03358237696063154
-0.03925586954174881
-0.0011533560104800607
0.005143337269983491
-0.04946828965761533
0.012181520629459985
-0.023656210512628423
0.05793482823250121
-0.0579122411824603
-0.053802408360910985
0.07777750702562924
-0.05898406834094825
0.054457143019924104
-0.02493296043592584
0.08702367785216729
0.03925807189193692
0.08124935098853746
0.06008199754618211
0.08225718427266099
0.022965406077439944
0.0012185180746934377
-0.015540645160494613
-0.11662161923251356
0.027590790168257107
0.02476907749522787
-0.018471342852074742
-0.04656875690788668
0.07161037666434554
0.12191798510724271
0.1258356864407891
0.10271810598892504
-0.08147799038577724
0.06676241549123103
-0.03711803973470608
-0.012630386174305881
0.030028327768341353
-0.08743195270885529
-0.02580129083579996
0.0009889926844113218
-0.0030441783702672104
0.13827749364703013
0.4959694657700453
0.9952029014164452
0.519416349973526
0.07079495813219705
-0.02614791064777651
0.07363076705718967
0.01883935332052112
0.0446683304541338
0.0038948558330984214
-0.0459273319506928
0.06291444031071537
-0.002887511359735995
-0.08694734950963763
0.004046570163282501
0.07668304956185829
-0.08388924598025294
0.053649694049215796
0.1354479404316598
0.010441388008133275
-0.0009537222597842806
-0.07029516910026211
0.012462783665294994
0.014949068285270196
-0.013400019633175927
-0.07162916042548483
0.055993788085372365
-0.00015015533895246892
0.05785254980675322
0.07466582832987864
0.0923261464089373
-0.043529561133158465
0.008276804596668387
-0.04328399625411142
-0.017032286264443825
-0.03138992662184176
0.0948302413134577
-0.006677089094344529
-0.09142788260853975
-0.06367897262487278
-0.08208922738421603
-0.04648727666329182
0.05968394370565653
-0.10621474483498511
-0.09358266840803947
0.028753349492454228
-0.015252200766703198
0.03895956802222343
0.06623923399118241
0.012855910645788803
-0.03262430579039992
0.061898508253533706
-0.020190058925319276
-0.029385106213097364
0.011205629047841273
-0.05551905965294222
0.053616628366158936
-0.0178446755617628
-0.042354799021791935
-0.006979543313862669
0.013626503172275335
0.08064182279560228
-0.025882989149095478
-0.048447558151371604
0.09346283962252008
0.007847244816906634
-0.029868750760034042
-0.02394217752907673
0.049925609483250366
-0.030054897139263577
0.06154304312917452
-0.011595219436928001
-0.09072285411961713
0.03262002627121582
0.03341477778621518
-0.0014229980884427707
0.045543949959128444
0.0559680313977781
0.03214791431153096
-0.027460362476305167
0.0191529947330063
-0.010602904837669142
0.021503664460343554
-0.028879981181802884
0.09694694876781412
-0.026801071953327205
-0.04368284561529143
-0.13112797848269067
-0.023883191688841846
0.016079763129407454
0.02905923382920464
0.031070190001950843
-0.04213313259110411
0.022969552703633447
0.07507596784822186
0.054439937272647815
0.058658206426832074
-0.06250560721080684
-0.06000804130598641
-0.03532724443624637
-0.016422818755423528
0.07170812830560519
-0.02570102560322034
-0.03825809776783343
0.04698707954210479
0.02131318742627486
0.051508003895405545
-0.03502388965139753
0.047794259928181274
0.0945108048331758
0.007456094310252962
-0.0017589777774598995
0.007882217791722091
-0.017341902163512123
-0.0458572722518337
0.047265155769802475
-0.07064278424610837
0.08371678123943213
-0.02577029154206454
-0.06493477618222947
-0.04188987012877795
-0.015830654130534073
0.00889221928393663
0.0378052871401299
-0.019701440182694627
0.01719626526171086
-0.05957878706692994
0.03376290541012291
-0.059865412017155
0.042835885157110946
-0.01535924362212022
0.03128462168181204
0.11899781950335438
0.07448789899368247
-0.09792525513218393
-0.03155650869785369
0.10723191093759138
0.02966511570422602
0.0010725159452591954
-0.016347475280099794
-0.015057832310753966
0.022349854784708995
0.017455798374465172
0.01818460478475687
0.07844767282991574
0.021336740083439495
-0.0116971951920574
0.04275896490431532
-0.03696737834577603
-0.03992948690884859
-0.050764457551618326
0.02001272510409507
0.06883724793978639
0.09831805405103225
0.5922021323203125
1.0234723108672463
0.5148748407991169
0.027939999119631076
0.0069647173256003145
-0.0060448035010664935
0.03973007919774063
-0.01878174881870075
-0.06275294236408205
-0.012464226337754535
0.028210166322823627
0.010130098888207062
-0.06841259017811062
-0.05358230777068922
-0.07589859667878335
-0.015148000151834122
0.031913515465518634
-0.05093934757400257
0.038348408935312495
-0.1265964909751037
0.06548095229172468
0.0703842409832799
-0.015189664994983086
-0.062271388077595746
0.01398869370494717
0.04686226338564214
-0.014211339997568767
0.007822719657271692
0.011564632371473878
-0.04350025651520436
0.08752026919898792
-0.056731200296882306
0.06773654393354525
-0.06930773370059849
0.04529642303804771
-0.027394569600118625
0.016376003140515964
0.046805779199014616
0.02434930982125072
-0.03702561710483465
0.014781719703479981
0.011260639254039745
-0.12134924720158491
0.006396756138826745
-0.016375130476566635
0.094994265142466
0.0771092175616917
-0.011778392057828352
-0.06294200981177493
0.05236967481008306
0.02548097655706402
-0.1555980498567524
-0.07093194066901991
-0.06370581857398294
-0.04239265358046056
0.03682328493711139
0.016411142651656035
0.05528679256191263
-0.018078509694556846
0.04714337021929188
-0.01291086834479826
0.029295970193568895
-0.16135269479859393
-0.02582286533452697
-0.04306699015882806
0.09083120600849427
0.01954518725821852
0.016493986562165157
0.10957986043927687
-0.05300205443690529
-0.05480861174428436
-0.03502867027559201
-0.0187860335645679
-0.01643557244986835
-0.05489815166705954
-0.040064685119393595
0.03380604066580319
-0.05078920476577188
0.02951279051268208
-0.05093466441904451
0.008383557025061402
0.023418024332822637
-0.026246346727042624
0.06554749285453189
0.07862682681505674
-0.037597914790947665
-0.024856760666107137
-0.016599619136551728
-0.05578836760903412
0.046320049553024135
-0.02314498587129079
-0.031360642779632145
0.015018077276831299
0.04700165034412088
-0.06070264237178602
0.060862313469896324
-0.06848609124025476
-0.06933034310435894
0.03887308282547415
0.0457747618399556
0.033353191556025785
0.0015112944292728907
0.03860631928365452
-0.008711771286853546
0.035425226001811576
0.04088484114189693
0.007968552818086548
0.025397616979623616
0.020625819244394113
-0.06187429555232476
0.033944218081588394
0.08414839924924733
0.021009958504490275
0.05318731662785771
0.05519066770183421
-0.026449683955207443
-0.08973576044845905
-0.021579766533009484
-0.02637514591900202
-0.003999343818693174
0.005660784284718557
-0.026034717215794357
-0.0016955049457105598
-0.09660279661830312
-0.11213287634368084
-0.02248138985679038
0.010859375122430051
0.008391066496813886
-0.044703180214172654
-0.11589254696484752
-0.06602520342605668
0.025920396883599046
-0.03320922295742368
-0.012141837928210695
0.10004182207834156
-0.00390754484176774
0.0006537733815834599
-0.04563219315863633
-0.0053327997050765
-0.001546943830149353
-0.07758024889920004
0.1251205765733906
-0.05706487415491667
-0.08286711518130296
-0.008961377118640949
-0.055649878681735446
-0.057494624098752146
0.02106795211099917
-0.02909566191517591
-0.02850380895280105
0.0680679141548484
-0.027112274601604938
-0.02980223305167148
-0.06980006862092754
-0.11208968739870387
0.14312265026083792
0.5123658258971268
1.0433679850491258
0.5498452930293203
0.03455814038071253
0.0028621486466546297
0.07170138914052408
-0.026756898264983203
0.00835053954481986
-0.03492435100753514
0.006225066477452392
0.00898520585480556
-0.04192407246143523
0.015525984441212332
0.1259580216539854
0.020240488851414502
0.060910767388111256
-0.0206498282226061
-0.08593647955936638
-0.10270905091417804
-0.021295107109756184
-0.005467922257591094
-0.05404743151776675
-0.04860143557396848
-0.04542912641148931
0.03669580086965614
0.07550953728533691
-0.03404530299981497
0.11548766455382187
0.01602085754253075
0.07158102818055555
-0.009715635111432142
0.0036510747099834915
-0.0064859885312314935
-0.01718727986862375
-0.02443439668150771
-0.052620646582608746
0.05006514973018447
-0.01802245538584665
0.0063003267714630586
0.10880591479983176
0.03926068132756112
0.10203566336551635
0.11465582619092816
0.0036151523799590984
0.02409316205218601
-0.04767773904733099
0.07806956430504584
0.011815896584798343
0.03681823552678952
-0.09196190569171311
-0.040539238151052676
0.006008380319643119
0.023728143689747377
-0.04801197953450423
-0.01554556910934258
-0.034775798744806026
-0.03132126211019424
0.05836125663813757
-0.048878433783586826
0.029978521430887667
-0.004928532016659912
0.0756871067388363
-0.037702998709859936
0.018697496908804716
-0.045701258146170994
-0.011837960836444561
0.04603479737393604
0.016468474959185558
-0.01537831930899595
-0.027651257646800605
-0.0088189209931346
-0.02030429227340743
-0.046739463779892576
0.08577550853023595
-0.036925199698813436
-0.008236819827630868
-0.04104691563893837
0.0034056552432831927
-0.03198922394879216
-0.04144130851595984
-0.07158411167243145
0.005659685425416776
-0.03996582542958424
0.02153170196430309
0.010061450160079363
-0.07774508899564944
-0.0053586394928372
-0.03364442527877614
0.02773852735567426
0.07140967467222607
-0.059075316134713875
-0.03981023937579227
0.01165740498127692
0.06387128858288375
0.03708608992695141
-0.061150542966149024
-0.05257064316321239
-0.057937067724754744
0.06244485019511477
0.035441625947156066
-0.04586508096448025
0.012798825762525202
-0.0052075952338070655
0.07504433322147763
0.02279509906354975
0.00632387480857637
0.06692534870274001
-0.05937091972093328
0.08293559520709189
0.0628327108897631
0.003742769214711133
-0.028729452629114867
-0.06076369975946876
0.036478535743720335
-0.07024539812196119
-0.03483564159959324
0.05246955905348343
-0.09590074413135391
0.007486358181743157
-0.04112453158684243
-0.07613046703819182
-0.08651882935100874
0.004384946507187742
-0.003936335919020395
0.05000687393008918
-0.013112835983723202
-0.020970082628134455
0.018286536053296054
-0.03922200361796824
0.015539311510811183
-0.01696810409596714
0.0052466511816682965
0.06273605913312608
-0.029359953497847993
0.011789671023799778
-0.07698789877160477
0.08444758553352615
-0.07075616830005027
-0.053843088757884905
-0.1782277479342722
-0.05087453379860562
-0.011360841393126552
0.12118915781977378
0.03540593461683635
0.0652835960698832
0.03073800390304182
0.0553758836864621
-0.018154903634455138
0.02705335847279533
0.07469936405944831
-0.04590572000582774
-0.013167078099451252
-0.060790308251297165
-0.0800998312511867
0.09032985222142825
-0.01863439793572949
0.13246297794546041
0.4929881670719613
0.9634424958809946
0.4331764410828982
0.13034825201081726
-0.029585421403367153
-0.0065881697756899026
0.11060801397562248
-0.02532412722511003
-0.04000029368003677
-0.03523605239028218
0.07084560744835926
-0.02831397750082546
-0.017731453616385496
0.031037750377303087
-0.05399849394204451
-0.052862256840685865
0.00718537682304815
-0.024711313712279758
-0.03860468663169642
0.04151232145825898
-0.001121710126970872
-0.0018175056402168395
0.04509805195190695
0.14108625475789086
-0.049862156257627216
-0.023464679791554532
0.11711115289941335
0.06462297901118556
-0.08479048193708323
0.028056000774167977
0.006339131195562092
-0.0040675499665698365
-0.027299233510382354
0.011025692420920954
-0.056899446457171245
0.04258403009294202
-0.03295452171686251
-0.030647538017514665
-0.041069230462824124
-0.07195705834640571
-0.13121241391530453
0.021646235329424425
-0.11170421366526365
0.08932511226426713
-0.06148804991496383
0.04856159983436253
0.040485299964388904
-0.11032112984550134
0.029889712703031993
0.16014203471862484
0.08584993040495217
-0.09629065425088175
0.053244920430930265
-0.035705080214376635
-0.13730393336627045
-0.04927987967520469
0.03552052655306037
0.009363967271666107
0.05451715244323327
-0.05567742429664929
-0.07740846325149503
-0.04369201490363678
-0.08739888410536117
-0.030391202626787163
0.0006479339055679633
0.0023241992003000334
-0.04433838088078422
0.010572122807640303
-0.09289324027364729
0.0860705099162119
0.07795851821408085
-0.046074352308806105
-0.14616739931863698
0.05989999465669668
-0.018218045682504055
-0.030263257583496208
0.039102499897287576
0.025874531697539
-0.03361619540006709
0.10789946564894362
-0.06577137565938806
-0.007435941287196305
-0.0392359890213408
0.05396116770115025
-0.0544708648903675
-0.08581872518290111
0.014956733195524211
0.10175549366605419
0.11169498230786251
-0.021176355673046172
0.010190219406560664
-0.009180142469100988
0.04037086748552775
0.02308643047221016
-0.08025722998613002
-0.005139614586568931
0.02599849905837704
0.027396471971119375
0.03393120399464626
-0.039091253832578776
-0.020382181284125125
0.052072781562764674
-0.001898584120044701
0.011845075148739184
0.049147277325202854
0.003122646897558829
0.0793802235426695
0.02371830633556804
-0.12491029684805476
0.03249541076941687
0.011089641400876813
-0.019135081082027328
0.04139256193093543
0.025169991375251072
-0.03346344375976948
0.10996117370787045
0.010700651905768965
-0.06980740184459946
0.055733068292184496
0.09355869174248888
-0.014806429470464079
0.006815202216380219
-0.10386701834046284
-0.01898558490422855
0.009614897390271344
0.02939757157529222
0.043987249340241424
0.06910473094704082
-0.019528036002922845
0.015257826683678734
-0.05642081913517723
-0.01026322094703536
-0.007613208711229103
-0.08000514022420303
-0.009941149714678708
-0.027103353180856826
-0.1418226742930728
-0.0024654472785090656
-0.007374597126552565
0.018960132364400462
-0.004914976692316505
-0.03498953419491206
0.06284015097452433
0.026092756008124152
-0.040675847470290544
0.004163645376552961
-0.0028810194632668865
0.039495237500833724
0.04742479902415979
0.015453042422029072
0.02045368991612409
-0.05900684126177719
0.0245688723265541
-0.07398480942612634
-0.013469192680967058
-0.035994804622190686
-0.00729527638835159
-0.013462873526958647
0.16400555127366254
-0.03153520915054922
0.1127056901988893
0.44393639591352885
1.013428385469717
0.5275497291433349
0.08419222170757996
0.021754990433370026
0.014221555326584501
0.0315255520374529
-0.015561788753722078
0.012741299698760101
-0.036019099180333046
-0.051315780109807335
-0.005999729095152909
0.041104593541659455
0.06845148895317181
-0.05261361586345025
-0.14295054626807083
0.013265415048107824
-0.0398684187402905
0.03893159854963789
-0.044171545480055925
0.10448938628445995
-0.04147465864505757
-0.014314577642749718
0.06037450891756585
-0.014005624127894623
-0.03290814739978021
-0.04505169232098771
0.03607914773250905
0.025236318966999523
0.007584115328071535
0.012491254524006243
0.005209465592525347
0.0702132796702029
0.04035460392165622
0.09632829937875147
0.05063058588787367
-0.05951859823915261
-0.1080956518581233
0.029821748854047606
-0.050262825106716084
0.016936819056303034
0.03813879865581043
-0.06880754835420165
0.03436759330952126
0.0686962379533168
0.006562226473662872
0.01803137665556461
0.047072600024624066
-0.05630237706723822
0.09585953131753823
-0.021810373495589272
0.14534254968681312
0.05037738716321058
0.013452656696329505
0.025923010704945477
0.0616074837445883
0.06801565070818988
0.005749865676149879
0.006712083160689296
0.028955952418014064
-0.051627152065877036
-0.036139926923028136
0.06889386599990568
0.026840367402897733
-0.032583831999726656
0.015188270828358597
-0.032290143601993726
-0.039918229012204286
0.04310890037033717
0.08648231915009424
0.07440184437381038
-0.0008065305306203474
-0.04783739360998433
-0.031500585820231485
0.005829977247442015
-0.03882135451202191
0.03218365849334515
-0.13601144591945866
0.05794031841622036
-0.00039197595097564516
0.03999055839670744
0.03965758525235702
-0.046772025304168637
0.004341117140007335
-0.002588259834346529
0.03860853894696692
0.02628911979549772
-0.03899501718130963
-0.02266580423507865
-0.030104415523149016
-0.016860546835460975
0.03449189392901763
0.05848902798282385
-0.06797435637036149
-0.0009191044840043179
0.026230256350405264
0.039283849679505996
-0.0628501778712711
-0.053400322909222156
0.016967617809309995
0.02837006023644517
0.09891149560064656
-0.04744221647107529
-0.005404444166484902
0.03021680216009733
-0.010002694583786437
-0.027949191650795725
0.0560609486903351
-0.031827768195291616
0.015917245356715834
-0.08949600287667132
0.022092568383792373
-0.0025375524149208774
0.019990156459708266
-0.10638587348017235
0.0734141215682832
-0.011628084660614763
0.0982124992851883
-0.07336858147172638
0.025030296172462774
0.005045519836982228
-0.035920046440566664
-0.023209010754917547
-0.026325164756469167
0.06617288404755228
-0.052186926741047225
-0.023774521527897066
-0.029605347330948134
-0.046764482628366244
-0.02367767036061162
0.0097019121561136
-0.011934563162665888
0.0023158259533359363
-0.09667740529093913
0.05778180279390115
-0.002256037480652055
-0.08560622566559128
0.08149660555447574
0.035015232067455083
0.10117306917518182
-0.07560953477245731
-0.00738537830580929
-0.07343238299465725
-0.015141274315957654
0.06567446410142874
0.12207455249343693
-0.04924442569236437
-0.007159242015305023
0.03034459067532165
-0.0697372520398493
-0.06047813851636631
-0.015528482430171615
0.03712495337461233
0.562357049909563
0.9744775736835649
0.45229899031135745
0.022754373026198066
-0.00758118596799905
-0.05053872099156542
0.004289595333057627
0.051918679654622546
0.002162087140678052
0.035152826386797856
-0.014193579798642761
-0.04639865243663296
-0.007182231454465261
-0.03527332295831607
-0.010947309617796667
-0.06535026024096899
-0.01234092038845034
-0.02549960815979741
0.0732147605206642
0.00953302231301701
0.02633256790565583
-0.008507241196297775
-0.03826476208998503
0.02845232079382262
0.007110037227236442
-0.01656924227095312
-0.04607045718299245
-0.0672715615636523
-0.08178650279926873
0.022411920973455936
-0.0022995860557816486
-0.012970796549089099
0.07154879730405331
-0.03255508842788334
-0.02490884377757726
0.06953570341111495
-0.017047429081692232
0.03752837044216328
0.004195857674744285
-0.012327130465199634
0.054978055124589864
-0.0023356738038590283
0.08709366944053623
0.07891369012289368
0.04040555161870701
0.020176533139274925
-0.027575594364003732
-0.0836103534546778
0.003846285650091242
-0.03572714284043982
-0.004524873192642006
0.04992489675908532
0.06959389976303999
0.04385294992081339
-0.020896574798752274
0.037399993871840724
-0.03368547014448113
-0.013009772289025587
-0.08264013494392852
0.01356743500503979
-0.043787484594645744
0.06001627562768247
0.043193309300680285
0.02174589534443461
-0.0636040172529387
0.0070542695573137144
0.0974169771698084
-0.056384866409966275
0.005804937325444236
-0.01960255447725803
0.02728524707797213
0.03876088192914997
0.032104856672750696
-0.12491024249671934
0.03239347422424881
-0.001701822330611702
0.01684498894234891
0.003222021841310132
-0.007957529606643934
-0.01769189233550148
0.020148900485197824
-0.04687446465660326
0.020567038822018546
-0.08459943470026532
0.048642226814741764
-0.009920373052081582
-0.0006087061735771338
-0.03809722261672052
0.017589175205962516
0.06069948850428441
0.04958067920934272
0.03257129934308115
-0.21136158897878887
-0.06214075816404561
0.030216670978314403
0.025999955927344377
0.0003852510248754063
0.0648438391263511
0.05902076024697326
0.079118069994002
-0.08631297117622982
0.0744470833233038
-0.0994829704123028
0.08705158090582499
-0.040610247810321964
0.0493805657755393
-0.0063265509941713306
-0.004828660877795768
-0.07682245207065201
0.007890810359226352
0.05395231501957684
-0.009299865605895524
-0.06710835508529538
-0.08739440436669409
-0.005639837062812391
-0.011449856716455719
0.014585282577000876
0.02504513606899735
0.0034599180112037556
-0.010803060272013717
-0.11197982140911727
0.012116743615499262
0.021202021059008737
-0.01799006045502875
0.011171720077769258
-0.052380441858355824
-0.053109186047864514
0.04011753078024721
0.04256709813038971
0.02779009786910352
0.06274984177014925
-0.09655249137668476
0.0960434128644518
-0.01783015227380278
-0.05233024101960925
0.04159615840662504
-0.053853344667417716
0.06694891957591013
-0.06032007739635305
0.004443253655349037
-0.018131049495347804
0.04544545778263595
-0.01640092763592364
0.09000562907159312
-0.1042755859622327
-0.016123731440152663
-0.07585822044183338
-0.04900059294003345
-0.08259039388995272
-0.008675048294963544
0.03982325765901649
0.035842993904736345
0.012661204528414408
-0.012597885707569792
0.009904228860999155
0.008532916346571214
-0.05422744571730795
0.011665878089318344
0.10330596896304266
0.57625463476964
1.000557542634452
0.47886393531948823
0.11336302664027861
0.056116081377980714
0.015134312227115596
-0.020329887514487346
-0.005454767102013297
-0.01631565145943229
-0.08561308139379713
0.020848588303837578
0.058686734158895526
-0.017177870377667888
0.05476277050212857
-0.023645664800335347
0.11124992948050794
-0.08193101507224507
0.06671498116144425
-0.06260100867681716
0.017514207480459523
-0.04059221915406781
-0.01708820950415633
0.044706831977753936
-0.055524772533106316
0.014154063077862242
-0.03638089630866611
-0.012454819261052463
0.020673652031888333
0.028218453820143697
0.047242316699790884
-0.031566476634851286
0.09131496615496607
0.005187693114090365
-0.02577572645939641
0.05913915646609871
0.030897613797227247
-0.0060022375469325935
0.02106610871761265
-0.019493048802172702
0.05991405876859766
0.017380755020544158
0.143974547555318
-0.16792727749552727
-0.018271227999533717
-0.023648833771181495
-0.06429103548060915
-0.08670411370260706
-0.012593229812547783
0.0222753116586678
0.08428719081009928
-0.016993975655386465
0.04116749010455873
0.02028312074586337
0.055526351729057816
-0.058982906417455606
-0.048469034949022896
-0.02233758047215254
-0.021161375090230663
-0.004226720757911343
-0.011283313680296276
-0.03472274432916509
0.15744260244653693
0.08233217352932601
0.01939302891740162
-0.03982870257691119
-0.035723100974447884
-0.021277276156714174
0.053865979698020275
0.036143756071696294
0.058271304411017646
0.02019125170002199
-0.02838699688742402
-0.02900267452736538
0.04867469392946532
0.07023297207297662
0.10888467328053189
0.021559492913142193
-0.1367287651800144
-0.039651104245110744
-0.018158742502091815
0.00040521117695092905
0.08046831632958543
-0.008952079964895443
-0.03547547027781039
-0.03475070105310212
-0.03444420860841251
-0.06824164604217457
0.04755394045586213
0.009975417274039802
0.004247376578963286
-0.07138380627318779
-0.027907103312404775
0.08651713876830157
-0.041423411128131304
-0.055338941153060366
-0.11599778713433331
0.056096435157489216
0.043506628195680214
-0.022804816478008857
-0.013713683251079637
0.054878172576999174
0.06311325084886787
-0.030032577469960593
-0.010562092397009082
0.04268879897990206
-0.03267774493992491
0.01674336218833631
-0.046640356786865664
0.056307295616213754
-0.059305272495481065
0.045672182284362456
-0.027822254247188167
-0.0015830756626541824
0.031995965196978525
0.050117620210689065
-0.04114469246525399
0.04507674461524874
0.027057788885080793
0.027252808784590646
0.05617908944963649
0.05781091317836737
0.027934208047427973
0.0048131965465176944
-0.04388011440960361
-0.07490949663280812
0.09587666686600275
0.013190094529395955
0.004745814484673562
0.05887296206966707
0.03256078621798371
-0.019477137070046956
-0.08666941179687825
-0.03748215460052697
-0.02544231416458209
0.07835212210692499
0.00963391948426437
0.06055956741542186
-0.04734401039509927
-0.08210380739017625
-0.024656664257284047
0.024325305120189666
-0.06602611907882587
-0.04133697999720451
0.010147873992577681
-0.0786374745458896
0.027790037998020975
-0.0014725620410791528
0.013803878243160912
-0.007171487820786586
0.033857344687210265
0.019006705754801748
0.041851011661584725
0.056253507615375654
0.018283963856073653
-0.04834509884259411
0.0036747341940438142
-0.019958258750303836
-0.04536884064449689
0.06612755657708752
0.08658305267053207
0.5668895100587302
1.0075433401872156
0.49093933136785867
0.053023901595016076
-0.09476945596895076
0.010193827265883833
0.09339755723797849
0.014685070543164959
-0.03190370622159746
-0.033215934800280386
0.0024779525679691
-0.013948693663569007
0.030048157828524165
-0.012500561877038342
-0.039871719563738826
0.006273546291663119
-0.023114699417213766
0.0008845839394079432
-0.036663734123846735
-0.022145714515814888
-0.009969526080459305
-0.050962104051872494
0.013092843115905976
0.006575744932924752
0.04897602074749577
0.09387984937200884
-0.00596061816607944
0.011421731408752672
-0.05366597759185304
0.024134921420645904
0.015420436403263477
0.002519612904207106
0.09021839016514793
0.05629945785537678
-0.03381535990967101
0.004244069357342567
-0.002554926463786283
-0.0402599962370823
-0.01633995785256696
0.010691140392436661
-0.10261376966334648
0.022777152462918435
0.04146442424490149
-0.04946170689691358
0.062477516757614815
-0.1038246140830881
-0.09466192136788408
0.0075198630168625885
-0.008945411045119934
-0.0005577271553229805
0.005594070530011116
0.042629619450327526
0.021266364046197597
-0.08707396765074811
-0.03717304033766135
-0.0066001740278074155
0.032537773800184515
0.07344810212089363
-0.014970021262202133
0.0338353105063871
0.06255502032318043
0.006184892043561613
0.07079908655251575
-0.03990756893858291
-0.03586064270143068
-0.06305462964737109
-0.053894823551292215
-0.03343766597348977
-0.0041161239684278745
-0.09359689617509184
0.08130320315601217
-0.024995547193819065
-0.029781050012763984
0.039087659639053515
0.010146340391162741
-0.0747728567649469
0.00038513122250824375
-0.011545946688652178
-0.09029994272598736
0.0329073960252918
-0.01178286191493863
0.07050594490805488
0.02977612230562862
-0.07335944206362834
0.0644263411101912
-0.09099423144875196
-0.17646020356041914
-0.082558321119586
0.01514424474173968
0.0495418381145136
0.04105743580344212
-0.07403084314414841
0.009217866225057013
-0.011624409853848537
-0.002908560154567516
0.06681573660574495
0.04709718719334585
-0.07302374707490081
0.0029783498204295593
0.05518040237447176
0.04388993718795928
-0.013491158596439515
-0.0984850098137447
0.028868635467347005
0.07122927089593327
0.005311139132219207
0.11268065335911717
0.03567307993311201
0.0152131681294225
-0.12530960061429974
-0.09584117112230647
-0.041350479060223495
-0.024926136209687588
0.039389724796655146
-0.019304844894140662
0.05077733468255007
0.003996991272040537
0.04519402638785369
0.03677235578928741
-0.07474817067434751
0.03632283650614445
-0.050838749188750455
0.05458799396650357
-0.005619278489639893
-0.03340317026069371
0.015718468476775837
0.03648449115981935
0.0018137897799273982
-0.02343987354544493
-0.003120494412604519
-0.04027416531802071
-0.030677899822447466
-0.09053555368726159
-0.08610032230574155
0.053937989434527794
0.1272754657235263
0.09197916591453945
0.031893972535894585
-0.010199708313585302
-0.03517303494017195
-0.005865053265948543
0.08467294065580423
-0.021939806999280515
-0.04072264418617145
-0.0917556146320791
0.05481115807056405
-0.055445964582520636
-0.016707283832577604
0.07429007902497971
0.06374401256259055
0.02735258337390714
0.03990375255720543
-0.0022485858610544612
0.005114246676106903
0.02437413930548016
-0.08067563506462944
0.01576621201044144
0.45736193038873363
0.9967141011985676
0.5135908548549605
0.1710346257087222
-0.04844243291580707
0.0070686607508241295
0.0003414890684383487
-0.020921060942454165
0.02602750734464129
-0.03334028198391127
0.027956293959877254
0.0073106382386797925
0.03464588903638447
0.015327932528859129
0.02516955961626549
-0.07062271389098028
-0.10002582186465125
-0.0572653085424651
-0.00010988856797996384
-0.005502016501363218
0.049961840132737086
0.016358730699559686
0.08248309305026383
-0.020126069297223603
0.11290159554041675
-0.027695869841416317
-0.005365444963251033
-0.056579472234736965
-0.02701691901860098
0.04717714822207503
0.03506161352683553
-0.03674835658558059
-0.0490344988691543
0.0027234898398350426
-0.047648943101503555
-0.10009798885273671
-0.05579651817739381
0.019783506639444254
-0.014226773173575414
0.020081199861580384
0.02940108588864615
-0.10996652539239489
0.048690720375118186
-0.02517402135528071
-0.05391241721799498
0.05718543454564528
0.004021070189116257
-0.032048944741292794
-0.0028735572308320754
0.05310208256353645
-0.014841273709744333
-0.05285581509007752
0.018988712022917895
-0.045206348552212866
-0.02113796866103891
-0.01900760097430588
-0.02264468255235869
-0.0005465008901822069
0.09548775767366852
-0.11124337963223008
0.007919602716836055
-0.10053756102933038
0.05692530612338295
-0.043180092900313896
-0.01877679416884737
-0.039032179988086446
0.033803531182203854
0.04291979111733199
-0.030463661909246854
-0.046507083673153204
-0.09454282486236461
0.08533557784727214
0.005424165050951745
0.015904531009965302
-0.02718583584457639
-0.07173113610066222
0.023258602057960095
0.06635882839436623
0.046588752814481174
-0.05881238359135965
-0.06411324497461779
-0.07982644708383346
-0.009249049341051134
-0.03173236930583151
0.041100946357771145
0.05194873710602125
0.009072715862568123
-0.012722067361698628
-0.016979182110094186
0.05896014905799527
-0.03966392300269719
-0.059401844861766265
-0.056561896530335914
0.0581598637762836
-0.07024483116174483
0.010427131136722112
0.04019848990828134
-0.023101120647334505
0.017074945836503746
0.001883842080537243
-0.09709980185825835
0.010649055109056789
0.0024793596967830605
0.06284103126092162
-0.0016470621214117786
0.003391599481726443
0.12367851495218143
-0.059718493414992774
0.05287584465582218
0.03444088752489035
-0.03994525100482819
-0.024254849514428304
-0.041006720026692325
-0.026916780977309818
-0.008754045464822483
-0.03968944999776308
-0.08858883661223466
-0.007329331609528183
-0.0713677492308793
0.010618762307564922
0.021517588370763355
0.07914814807158381
-0.08993143041036716
0.037548393918650204
0.020067667580433445
0.007384340128654965
-0.03792662859021255
0.030084126348031533
0.04291557116580609
-0.026255542021889018
-0.06340594696787143
0.11864996651544679
-0.016620314363654142
-0.037268752704465384
0.09951010656000547
0.019828991124846346
-0.08824170541517792
-0.0009977388557688564
0.009694918657373026
-0.07363394046368808
0.03203910313382319
-0.04540678250668448
0.05538633772375522
-0.032093093228460566
0.018234584516024274
-0.003106819577343798
-0.03322442683035636
0.039976557605862745
-0.021969553670680608
-0.02303205015014053
0.06803250303376233
0.0956649927395912
0.5163371830971007
1.025971284165169
0.4887866621767618
0.1554691090989304
-0.07630994344694945
-0.1270570750750829
-0.05289533220378393
-0.04458139630720131
0.031592184399255784
-0.06272032793365952
-0.022592852020549628
0.01841001833355128
0.05690626877646594
0.016692494962289403
0.06653646567175342
0.04874436389221523
-0.006935170621544227
0.08694370163996373
0.021160828768414762
0.10392034047213822
-0.04753915888551656
-0.06235196383601715
-0.06151586577568313
-0.0695074758667684
0.024486464364979844
-0.08659828489331736
0.034149035965967064
0.05372475901271038
0.022899359727531182
-0.04467015686393433
-0.024620388516294472
-0.011832627046893342
0.06724088714038431
-0.04890050862301493
0.05307534439263607
0.03564476507138947
-0.07520475986831697
0.10429355734017359
-0.042807317719195714
-0.06484168955606844
-0.039353817710208266
-0.12572740477808525
0.037331896847290234
-0.01870531173578654
-0.044027694957216125
0.0072750523911616835
-0.00032797607003133767
0.02211092792734815
-0.10631385488186303
0.09732815761407776
0.045660522381790594
-0.004930461966668964
0.04580662296617767
0.03239237567927543
-0.007728285685407245
3.762774585283006e-06
-0.026148047935018112
0.05715772271171931
-0.040747538031204365
0.10088640725438286
-0.05450231001068238
-0.04435730555797875
-0.010450794658691545
-0.04893332050604327
0.06863526347544453
-0.0089840458514017
-0.042886295386035826
0.11810751755650083
-0.028431043813933132
0.013744116838815927
-0.07626695426931679
-0.019984836628143567
-0.06191234812156944
0.00863513732733359
-0.09334939403813432
-0.014557631422809606
-0.013792452091713411
-0.001608694063231261
0.015671413155688606
-0.14276341259662104
-0.022263750229031116
-0.0022298643765882795
0.08405890317338394
0.06506758984872907
0.06954818708585343
0.0023145818517398826
0.05333383851247443
0.051272675285186656
-0.016460704995164176
-0.021856046618644313
0.014349452663054608
-0.009770802888029942
-0.093269493364423
0.018382302658274542
-0.07042459386317
-0.0337180078209938
-0.056337808123377055
-0.08533565818804364
0.014028464233838545
-0.04407210647905793
-0.005339459950286129
-0.05805858365524389
-0.016374186640080314
0.045268112376518316
0.052699627264080874
-0.013206969266621578
0.09138790435384948
-0.037422612364772144
0.00213259634030843
-0.03203571218151479
-0.0023083781417114493
-0.004984872899697665
0.08431655325112657
0.03102079133284011
-0.13682427095479238
0.019050314551582105
-0.012987320149417104
-0.01727866658262447
-0.0018849956032467687
0.07019000994123918
-0.07544114484017596
0.027123510637561056
0.01024070266939287
-0.03681686212431482
-0.06419284377660694
0.012158401111781486
-0.06681934463771114
-0.04531209500753916
0.014336309818359226
0.057867057666610835
0.007758893564291447
0.02190796192336873
-0.0728204262394562
0.10077174438607513
-0.07139768858218061
-0.06813756173457557
0.055711482664875446
-0.015424322095221932
0.1255907281521296
0.03919847315648534
0.015866956419381302
-0.045631423905229604
0.08799894283123652
-0.021180794492540844
-0.05681342190749611
-0.003982192344921938
-0.04284039852246774
0.022400937704099316
-0.006525255629161302
0.07871516110254072
-0.08777576882115745
-0.024285220434074734
-0.027206917204095512
0.054653475385878905
-0.010103811947533514
0.036084057439213925
0.09496975724455418
0.4836027485535767
1.0112405668856526
0.49747855369677063
-0.00045918079310029725
-0.014155786580674998
-0.03481500544609169
0.05817078156348707
-0.00965116313021637
-0.054729535937201916
-0.0074338524218177104
0.06113227055349052
-0.052530262127878535
-0.03237082285638258
0.09410121935413451
0.022776142510076338
-0.02493679213130558
0.0008078063604809017
0.013883632362413368
-0.03799999716913847
-0.07487291079203838
0.024700671003255237
0.04754262778111018
0.04261659177528365
0.01309920116438558
-0.07079767546048836
-0.01727185174838884
-0.021391459155050398
-0.1419212638331345
0.02433932049421385
0.029814840517080467
-0.015465316651823217
0.029823939793658646
-0.11177475796481551
-0.02364427814872816
0.021158175807380393
-0.04477545324018509
0.06030886632735786
-0.05220125465062721
0.04835500576548829
0.029957360907602506
-0.0929677047834177
0.019466284590342237
0.02091498862132699
0.011848156686064261
-0.012125383515385762
-0.047497359664035864
-0.023214728632138693
-0.0810812858772373
0.0013179755715484992
0.04373598562680862
-0.06681456201065286
0.06970774596426003
0.030664569554637224
0.007548861148199294
0.0551406049042144
0.006071269510296013
-0.021769637360431228
-0.052942328774352745
0.02892701843085877
0.02181707435644555
0.0048227703920487065
-0.018873216877603582
0.04703805061127894
-0.0002812318394050871
0.07094143225832736
0.0012611931783120935
-0.021485846077425052
0.01809219297201839
-0.005323976494004789
-0.06329643056265812
-0.022335301174018163
0.0852132835118956
-0.020409948786770736
-0.0399813956821399
-0.021640145805231655
0.004787250268169658
0.0536704035913205
-0.09005939493551224
-0.0752319289885724
0.03819852536094296
-0.05669462423633209
0.027154942788855625
0.019772797767531908
0.14929030254122988
0.002156553442981024
-0.03881756592372251
0.08662605385122274
-0.0224780865938444
0.07632198181032107
-0.053031184306253254
-0.0055020339059683905
-0.026373816709293785
0.024639818383512688
0.02820530881012405
0.006755343802783996
-0.010242441444291582
-0.05038273436086385
-0.093472938681397
-0.024394529873713724
0.023719775878716466
-0.018027992986723605
0.01333483440848493
-0.06159920142258585
-0.011907350994567837
-0.003359405263744989
0.0071465244987929935
0.016298329294608956
-0.04122691657633148
0.024599351906314234
-0.006334771936214026
-0.021118947427409565
0.007388545812784784
-0.012932457979705901
0.0006022042213541113
0.0022352072120958213
-0.03437782222569613
0.03208168924322811
0.08597245910092571
-0.0003429890834390663
-0.006043011931743215
-0.03894732143417018
0.06689815370848472
0.06887862546605673
-0.03689070856551993
0.05733348832228528
-0.011541528522116984
0.03348823820882172
-0.052931748710278864
0.021086412627795186
0.032325670951810374
0.0063995448063393955
0.05082007366890025
0.0743009181270841
0.002254901120276844
0.05422069645556943
0.00017130706390821454
-0.12687327451825023
0.07698009661974432
0.07857662196116766
-0.08190386488992725
0.00230165724228608
-0.056767377720889606
0.06168185905583883
-0.011971559310052903
0.002862948065588294
0.11595992592905445
0.03930458862959289
-0.04165227076654676
-0.03128656074744939
0.008051706974073604
0.02412537614959192
0.057270839460500815
0.028531459764833525
-0.12251818293627333
0.009747660145404829
0.0030443170442204263
0.09123568845086266
0.5552441001480862
1.0250993520726028
0.43130705209820425
0.09677116242926752
0.03934991298855495
-0.06046968863928901
0.030587009394019878
-0.08376473837288514
0.044648282688112384
-0.0024338667424429654
0.04495483496447738
0.009405004509344917
-0.0457585891660985
0.015848676728003015
0.03520688347300465
0.031295615929912084
0.034732546779667396
0.004097591889498079
-0.051131196170381504
-0.04039675366450037
-0.024874862071306986
-0.05734757251148455
-0.06880971401890755
0.04458121737769697
0.12466985966120143
0.0424927143375589
-0.07414937918007374
-0.027137985467437932
-0.07323749802088611
0.031262265427114605
0.03568148591062472
0.015119366577760009
0.09598585048307058
-0.12261559994964691
-0.027889629346568353
0.13249199314416926
0.08600735983376658
-0.035295459216070205
-0.000575918794492175
-0.0013481884951954642
-0.02813435085092111
-0.024221319613488983
0.021981073191891975
0.03782082594230297
0.024193618191510623
0.0032741971557250222
0.08641118184444324
0.016644117932007783
-0.06865805827034699
-0.0630044166800799
-0.005055089581069405
0.0401035197415735
0.0927544804583178
-0.06088513347203182
-0.07521006791986232
0.013821229641142505
-0.006041549585317552
-0.039853718947886675
0.04455565721983288
0.0010148649201149882
-0.08224612167883749
0.08734696846019284
-0.02935950010025211
-0.04627314946391391
0.023762623038542534
0.008638124104191828
-0.0872791390326523
-0.0654596090822485
0.08720870800550039
0.049770936452616904
-0.02937652036273422
-0.16534961252334113
-0.02033561716421831
-0.03484161218423925
-0.101782101688438
0.004815402041872487
-0.03138383657741855
0.007552581341088108
0.007770663012826204
-0.02643265149276848
-0.0068667801640250456
-0.012420702397307137
0.019102965575808466
0.06264952417890127
0.03264219226810088
-0.07361644589382697
0.016430089832663496
-0.027382892111114512
-0.02099935140360994
0.03435923955744139
0.005743639899077013
-0.0013291542304824252
0.04172238188602945
0.017869422065608088
-0.024759085320204488
-0.07015952924794655
-0.011532154061232298
0.017383938353996518
-0.003288279047934935
-0.00046410510316165926
-0.16842304721213347
-0.12982060982431615
-0.04887991866351196
0.004978754732542126
0.011721601940671802
0.001914793889642788
0.08289721020924153
-0.011032069699185652
0.01954198300446619
0.02530841825848131
-0.016124252973540327
-0.0186576060803605
-0.06559688705610954
-0.022516763100789833
0.0365579998924819
0.03865092984858093
-0.00887689963668482
-0.0007798824336816348
-0.0017335410974393527
0.03673848877714612
0.015696835042920385
-0.025710811953261376
0.018728834748840868
0.0437750820720201
0.00247189131350862
-0.023229670107792824
-0.004189517773454878
-0.06061014936057072
0.09174188098384523
-0.0007012225127706264
0.10844164668240208
-0.020220854913976394
-0.021931787723727166
0.11560695471739298
0.05656320515481226
-0.019047464791912896
-0.006987964370100292
0.037340987216192625
-0.11659996427589432
-0.04748656990260753
-0.06739485287462753
0.002332618047615534
0.04622076181498058
0.014392064668149988
-0.002003470381641418
0.016672751731885305
-0.07935984265195573
0.0009665411206682597
-0.07313137084292635
0.036068087464651226
0.030936301799525917
0.0265105223851207
0.05005377977556735
-0.07449508300148273
-0.033412649468562275
0.06302420303940577
-0.07061288294901961
0.0700096161260495
-0.007702591409320366
-0.0546039720268003
0.09489214139803963
0.5724719628421686
0.9671953545786391
0.4951886806823058
0.10396028189117738
-0.023861991006857812
-0.05085426232721865
0.07820644859842124
0.014639347693137626
0.018320665932653076
0.04542704212143376
0.04704679005029975
-0.02908658480352528
0.005080083770706691
-0.023235898107106776
0.0002668226769811474
0.041465166548709576
-0.035646693924992395
0.0027408432961788794
0.056399646579524704
0.055695776784069485
-0.0317989816209286
0.04678888362824085
0.005784940512889317
0.03281092606923753
-0.020089187155993986
-0.01919324358248957
0.014475816627282824
-0.003404713392766546
0.009996198582051368
-0.061940458488532184
0.044278732482056785
0.027352539784909098
-0.04704410846876356
0.02417346810823575
0.04678372687089455
0.03971773264754405
0.03962042509679206
-0.022216681051884103
-0.07037996001621698
-0.02055295801357547
0.03932528573737553
0.028961674750903128
-0.060502832063384984
0.06757900632730966
0.012455797922885325
0.005741910931589916
-0.003405945330514248
-0.018900290832313267
-0.03596482289176476
0.006144583073636257
0.07422210550432132
0.03832599773721314
-0.05858797110260157
0.09027376047677327
-0.10451913810083394
0.07804242857413785
0.040012078959284846
-0.005000259809700636
0.04321931673466544
-0.020026881002849124
0.025757092110619537
0.027422653859833414
-0.01867863406889174
0.030133981488215535
0.03294498153138363
-0.023384095087940805
-0.019670455986872615
-0.0387819711014244
-0.0670510314919232
0.020591130217746598
0.005962249180432597
0.07542415440631903
0.0547146841019604
-0.022667266918514797
-0.05352763829989907
0.04660061573918124
-0.04849447815170424
0.025083986176929723
0.09136835684216939
-0.0051678623345836824
-0.08280157113966966
-0.03082036931402384
0.026951232099097056
-0.049628482900879886
0.023179975950659987
-0.03547162757793756
0.09252958060965366
-0.0007054011614354564
-0.008586985814979643
-0.006673802589594742
-0.060374743508346734
-0.036729878169499124
0.09163601249208772
-0.03703714522080578
0.0015898277609985006
-0.0042260017114372495
0.019350115543548443
0.002825062862790113
-0.023184217181690735
-0.029933077564210837
-0.03072580053183819
-0.01003340518583285
-0.055312275338559605
-0.047596197867825984
0.05314414804082823
0.045966541228252986
0.08608281741529118
-0.022774283755536712
0.0795812076509631
-0.017311686649124258
-0.055168191850579244
-0.017956510318686655
-0.021734413620120588
0.02707988858157151
0.03162146357050222
0.0059446466778934485
-0.036735058141277775
-0.007899945135171052
0.038890400698799954
0.0659341844937338
-0.058652136631494246
0.06109170509769146
0.05596669685827397
-0.00021425761394754583
0.027890942497197726
-0.009175510390775105
-0.011876248149801526
-0.01272786146149198
-0.02019217801085435
0.012032738311070846
-0.05440474193875286
-0.03980623831436712
-0.033493479690268106
0.09247600358651514
0.04018668767858841
-0.04806160110605635
-0.007770218480617231
-0.03522968899515679
0.014940277214048845
0.040409009141061526
0.06592913208603007
0.08140045681308822
0.04501130507799107
-0.010061364376026689
0.006335346375226628
0.037532303857976845
-0.005606383104276972
-0.001662909593993533
-0.026666972919375826
0.007680334594450576
-0.02728151316449778
0.010769974939299126
-0.0313312227885141
-0.11979257892838191
0.07051749475349504
0.6130197382608744
1.0822874307793844
0.5050314888398382
0.02244327015283193
0.0634833468481971
0.0005812337923946069
0.09313504002435322
0.0061682953333054786
0.0772104282303412
0.040049472229932485
0.04221228667661338
0.016558490962829433
0.03890795135685707
0.03836885248176719
-0.00332002820214522
-0.006865972373605348
-0.035095061832194525
0.02283553418045664
-0.04464620998434257
0.08648470098309981
0.0121567047945343
0.09015706620481942
0.00931727433834688
0.002976987022362053
0.060839533084702406
-0.005284366090817526
-0.04438526785330571
-0.014430628833284734
0.05383728923150553
-0.007172266889234797
-0.007848999014470582
-0.07078488918141643
0.00902102872373301
-0.04724044209108191
-0.004579331182382151
0.10973699259105536
-0.05555980118625756
0.07538640661414193
-0.0039545635880824945
0.0030360158537277443
0.045110872692649025
-0.026049977646487824
7.638908180419569e-05
0.02204939392891632
0.06514477336852233
-0.023142477845376028
0.08700618991651933
0.046722739853840484
0.0226850608322737
-0.060661838594682715
-0.01950846801893505
-0.027118870928005957
0.06023042296540748
0.006489070133342875
-0.019745406408712335
-0.03842284121527509
0.01639468346577309
-0.016258597016627005
-0.021543606890351855
0.07122573100867584
-0.11169957058763876
0.05389431054240221
0.006170517068307263
-0.03815650441176202
0.035349875547891575
0.038830507457661236
-0.0013028604874666901
-0.017752420038187614
-0.007772136323671033
-0.024498405350311447
0.06930947417320649
0.03564472334272631
0.022879096520918768
0.03038768471181541
-0.018342859163720967
-0.0010894936223081366
0.052278782582271546
0.025152978407961026
0.01991775130703264
-0.028501061559473097
0.058740132208879886
-0.12314881693147639
-0.004408067695983485
0.06646556214439829
0.0022428615435701417
0.05308404093726604
-0.0678268037542239
0.045292611709904285
-0.038076928184519326
0.0071207982446739905
-0.03229891274133489
-0.053945617617923575
0.04381730192237379
-0.07011121831027488
0.058184738106162294
-0.048221994779690004
0.0696055804964078
0.0016286397560836342
0.08149133785325535
0.054863431664379916
0.030203121679992097
-0.06015794331016118
0.04331460354569116
-0.019297299621573755
-0.014912410984966585
0.0868928968098786
0.03221190710166252
0.09946901370426355
-0.026849699379984073
0.019360102551599014
-0.012131146633838269
-0.04695860685752748
0.06792646194479758
0.02857193571350793
0.06253349909443749
-0.030129280767219477
0.028846561836072065
0.02615130873380426
-0.020397075081847543
0.10688402010417275
-0.007280805028917281
-0.07843802596527644
-0.10717015134953134
-0.04400922586544245
-0.05658205261169619
-0.08820996583851608
0.09851249933329154
-0.052707175656833596
-0.06726862851229551
0.035647972627770905
0.0978013291323315
0.0100326101007683
0.000952803991621876
0.0845277822475237
-0.016982745218518
0.03772280312937559
0.010962998055779273
-0.045810857878070155
0.07020354803515969
-0.09635095877729483
0.026040006701344057
-0.06574181181218172
0.009831146788974678
0.1025159506485621
0.018547417647349282
-0.01856241389002147
-0.019169373571881226
-0.06013432077479414
-0.045093092449153084
-0.01305505178741934
-0.0453407175216935
-0.017301454231097052
-0.0030114868893741666
-0.033009400784066945
0.00673164495569898
0.11619462408480873
0.5937149949737146
0.8844158691910674
0.5550982903801802
0.020286842478272976
-0.02954593906497588
-0.003536660363698481
0.00313065052734082
-0.05520391295523235
-0.02032317115388914
0.13442578835229751
-0.040397265891176835
0.0367300348258914
0.007106971881347704
0.08420816400546993
0.08295831295283168
0.039682018532723545
-0.031174387924634533
0.018252380088470094
-0.02586872054028554
0.03446818734395738
0.152779609763534
-0.05958398517911782
-0.06590906152044369
-0.07514457525625631
-0.12044313697134204
0.019475834859012928
0.04428368451213796
-0.04566915111341685
0.07647284254567477
0.002257412474691032
0.026070117016837542
0.02280081823781261
0.05075171247167923
-0.015284207302557315
0.02839780273257149
-0.048578176365102324
-0.029285027848288958
0.020859084459956236
-0.07321250557497673
-0.032537088485666
-0.07835206826526257
-0.057199060442899775
-0.06421220568945832
0.1267951052886349
0.0897970541880127
0.09590166610264983
0.0217994234599519
0.005595649036658361
-0.025248512291200183
0.04052605512767407
0.07366893520432874
-0.09936274546589366
0.06543864084309607
0.0025223585592161766
-0.07337293475992702
-0.02663357574945867
-0.05313202354860021
-0.013152452570028006
0.015276663046753403
-0.05400034887302194
0.021353297101326302
-0.06962128540693509
0.0717195168854858
-0.0928608413708304
-0.06633233187100172
-0.030496138976602073
0.04676337208079834
0.06375939489125523
0.02756284412310003
-0.008754822853903995
-0.021712843490203665
-0.01578538762833241
-0.02402288202651984
-0.07493175195436252
0.0029038554043018753
-0.010732816049039126
0.01172567015293554
0.048233395262876344
0.049111099715630976
0.016896113004070335
-0.01763708941357046
0.03714428336684699
-0.022180999781459407
0.038888502464163255
-0.03024460844585837
-0.03721483185410512
0.05304341969036809
-0.06496453901831915
-0.027612841602511796
-0.047445086975979815
-0.018391597762072054
-0.0048618385583988465
-0.049435984070836936
0.062112245303786354
0.04065762066671344
0.02907714627746537
-0.0240617935628799
-0.10213458204746953
-0.05607065166128178
0.08339857043071619
0.024479269042559614
-0.02955633464959311
0.01639864310433844
0.06387573883766555
0.06091142909929598
-0.01098855668859517
-0.06702284653456808
-0.01400931195240631
0.051492370654895495
0.04947050091203556
-0.07185689698452276
0.017145529029431145
0.006672387867684886
-0.09789701530262837
-0.0010885518282903557
-0.007587198712205617
0.04485110926238006
0.011297715702071947
-0.048729849910019774
0.08427943272994087
0.06741812941334778
0.0023779374919741672
-0.025833341302588422
0.08144712039062485
-0.013787013653831268
-0.014568518968997957
-0.019691502659071665
-0.07440054157650816
-0.005065676019328601
-0.04665409526182243
0.1207812377404462
-0.013591628530931611
0.009368389757256712
-0.06382066168135801
-0.016132234443368528
-0.0035141712911235163
-0.04372278287107358
0.05128547871030773
0.01615547328356149
0.00419451883000957
-0.0731503027544844
-0.027847251152836094
0.0039573389860907545
-0.056194660535417953
-0.013202169674852594
0.012923771385902859
-0.01979631240967479
0.00018944877126360042
-0.010404985241063128
0.09237804179630622
0.11287328089619847
-0.0006592695414850228
0.05680001452544484
0.012018597523773851
-0.016735036480207317
0.0748054727577598
0.45087051243441634
1.0286943827737811
0.44907962907162086
-0.011996875879385388
-0.04548889242803928
-0.022574976544428166
-0.002181160934288785
-0.011691587885900879
0.056251189761222786
-0.04071289357621967
0.07405574415942326
0.008203826682066784
-0.015185903049092104
-0.05142720929115188
0.04570644077963853
0.01554180306126295
-0.15566554180683675
-0.09565742059132168
0.006823869923639321
0.027517329593982412
0.000551137512182935
0.022525717196565657
-0.010666926805732627
-0.02138662820103661
-0.025811944772483428
0.011145098627097623
0.03968112378995682
0.13926026648193854
0.015601993773352037
-0.0073856998486134615
0.0458035369214937
-0.0629501252914606
0.024872249827298284
-0.02030810573295329
0.06808734888140862
0.026264017336813703
-0.026620990541246614
-0.0142359577163966
-0.0038615133762754197
-0.02387643990067618
0.01783246295565138
0.12083784252715957
0.04993419195232919
0.059283134940462716
-0.035849037672557135
0.005125487058863064
-0.03638231870307712
-0.04045667444669196
-0.03384236790695377
-0.04412033589299653
-0.012039488693327886
0.07569434194594458
0.04762482175501476
-0.033411899208686556
0.0730570256140573
-0.001461958230427575
0.0011015857201658523
-0.05299518093893846
0.02348659619358116
-0.03242337470163184
-0.031454699569915257
0.0382619805068213
0.059608037224660376
-0.08202423352618726
-0.026384944127372807
0.013916339167880903
0.02944482492689576
-0.03478997435636303
0.01450248279961359
0.12199048558114745
0.03011406879165994
0.02118442605088427
0.04236247157919791
-0.004089442042084174
-0.09563219262941063
0.04464675418844369
-0.040712436881200964
0.059459202926153636
-0.029495555435176613
-0.0844288539146101
0.0881605518424258
0.06031969441955534
-0.019491670532418244
-0.08011154937381804
0.04312874953806348
0.006092866429055338
-0.047542266445043585
0.030461791709493015
-0.04301515428446639
0.009470851969782158
0.13572274517392388
-0.030360772695590885
0.02493571245005141
0.009288577464735851
-0.04977590321520784
0.026374032659562865
-0.06714776043775685
0.036614631347031766
0.007024779714572435
-0.11951400898064289
0.045390321787223596
0.04135958281125214
-0.04999621601474109
0.06344675754757591
-0.0295109227634903
0.03477089249883606
-0.033559829165189556
0.06042483457493212
0.07919083397588807
0.039649565290964736
-0.009361099676625162
-0.08650202514304306
0.06830066306745833
-0.14472131479892572
-0.04861523824873995
0.01102161524309432
0.031537857858569905
-0.0772026161105567
-0.04231163460574894
0.04724492572594411
-0.028715035137315555
-0.08895939188693386
-0.0626573976086133
0.07031058898302782
0.04159604808728445
0.06571314148691522
0.05595454842504693
-0.014483436436135545
0.05696225011008869
0.00030027312108156095
-0.02031937003628619
-0.013973577190532521
-0.011141665468897412
-0.013368717645447501
0.0005995046342785241
-0.01852136854651878
0.0375338318837736
0.012215447304556043
-0.15028726024337463
-0.057857180833100756
-0.02991127942408558
-0.002885442128130904
0.005208578212780932
0.031660290361536406
0.04301913623042536
-0.017610006943045507
0.03416083170547683
-0.04150695084143799
0.0692193047990831
0.010426660727650706
-0.05739146723768154
-0.03167378214646531
-0.02872518662444057
-0.08970268653398981
0.08675986122453112
-0.04391622927708014
0.12126937971204989
0.5472100770029168
0.9744059111863509
0.535483690197199
0.14682921622313005
0.04023590918577866
0.02071562395446747
-0.05425908476048944
0.08957088750752262
-0.008258199397003908
0.0031836996926644778
0.01047637622088494
-0.060485494146107745
-0.06882979379509224
-0.036990188795365496
0.04784460898349763
0.0010230355881619263
6.358428137507018e-05
-0.00528317433249378
0.0012336241473892818
0.02227648417538515
-0.10217616280021594
0.013538875367249847
0.05611032575209912
-0.034087495316073246
0.019248094750535405
-0.014370745875042
-0.04204510343135194
-0.05205401354572359
-0.03138661937862625
-0.014971999687772526
-0.006179604325806565
0.0456818102870582
-0.08402952230664214
0.021996836517351834
-0.030017270393537993
0.037250669403777484
-0.01619174162611927
0.0780515806522713
0.036991724870284286
-0.024067974067890643
0.08080403186168882
0.021588526017303662
0.037835887258045424
0.044292349162092876
0.028993419944850014
-0.06740854346962315
0.031252720792910214
0.00198972834237381
0.004842950640974982
0.12058191296897663
-0.05041294972666223
0.059654116838822505
-0.10025004975994345
-0.03846929061583004
-0.036659056827971874
-0.07286227763110094
-0.041275431896923856
0.07538078538139578
0.018897323779612285
0.023796180372844058
-0.009331187741188752
-0.06835690879697282
-0.04894566913608192
-0.04089657265824857
0.02641400136316263
0.07298832052962584
-0.02686845285293681
0.040494489792000564
0.019308508037941558
0.07366371191592844
-0.03298583855529915
-0.014122215916428614
0.07294911151307361
-0.0036940770225435647
0.05095031582588109
0.042937490986515385
0.03801753021858388
0.0376034100463536
0.01659009839344854
0.006838116058580067
0.0023798449779228806
-0.03444514003369231
-0.04273434621206961
0.059343452000132815
-0.069322210664565
0.09100138042426416
0.0451904392743591
0.0015263857030761608
-0.020556635317953938
0.0075463195060994125
-0.06408711802980203
-0.048817444609321636
-0.05856258852842952
-0.04948448420790408
-0.025281575262731726
-0.05647698735956627
0.0244687406994386
-0.025266236468486376
-0.003937023896355928
-0.05036854965992622
-0.05729405024895561
-0.016192242780057455
0.017015282427803657
-0.004358459710424586
0.029735708580377995
-0.023220722624607105
-0.04460531796817353
-0.02222343148224049
-0.03768033784567378
-0.036336515958837405
-0.008024521721217056
0.022778803385625046
0.0034861990579055724
0.03666435906602862
0.07952784430407941
0.019215408900068384
-0.004568675481962528
-0.05040419888869027
-0.00667376545280721
0.007001782897376559
-0.024828914293550795
-0.034999867498020455
-0.03127268788190497
-0.03331735086127457
-0.0528087005957854
0.035536529010196646
-0.08483958433964507
0.07098410628596617
0.07366096028119593
0.05805504849843082
0.06505832801293651
-0.057900971896697274
-0.07820674368987712
0.011740152059263622
-0.02876425005122983
-0.04543183156536193
-0.06712908292174491
-0.0004151202109197878
0.01206314949633247
-0.021337858017259743
0.05313423241865646
-0.02608352938953118
-0.0555730040294927
0.051157387708283354
-0.07662635049437061
-0.07464250571909713
0.012349964704319335
0.02303391250443766
0.09406046849889405
-0.03280618304271693
-0.009741822522589934
-0.06615979726776922
0.03767362824765148
-0.016318049458886413
0.006371696448318838
0.055446839180102396
-0.007457853461284048
-0.09125129019162043
-0.0145905027970236
-0.10314433187619182
0.12452036199211046
0.5634382547296912
0.8758096471276867
0.4879805779279266
0.13494837911892982
0.0045783847992943464
0.012468056697618902
0.06411946795634964
0.08494075006022124
0.003253381905830204
-0.0456209596637909
0.08304677783503028
0.014386869936210175
-0.01633498761297622
-0.02749332877371907
-0.015605849155595883
0.02288922658162917
-0.022970966363645894
0.10893907118271942
-0.059574761758451625
-0.06794936674930946
0.010818210148224051
0.06951467571792165
-0.014717638122862484
0.03641864505348373
-0.05627461407851201
0.024838328492057325
0.022111257136638786
-0.029783609391618584
-0.07681146570592212
0.01394159110848013
-0.0673196023123629
0.005435836421723191
0.03052628474004157
0.07645547852961326
-0.04959118947860346
0.01522263383495538
0.03833083298109653
0.007408213948823747
0.031174573514564888
-0.03654102093329465
0.02025056805921434
0.034681936204316414
-0.009827338945475038
0.005836566757164867
0.015368910969202896
-0.0450012599808061
-0.04020625608240198
-0.016181088886628753
0.0014204634092774854
-0.02804690436248011
0.014426690325681741
0.039369524953238866
0.07417390149895353
0.00016483476019460102
0.06922448720023366
-0.09623105528037025
-0.07296027359199683
0.07814147322509675
-0.004543095280253362
-0.04958869991030129
-0.008683071952975937
0.023934259823125324
0.054842501051359994
-0.019983060199364303
-0.015467722851613856
0.05448265852947609
0.07394555553736636
-0.055488920569211064
-0.06313616957118015
-0.06666888230262534
0.03481522846207088
0.018457559284785475
-0.05902460794462347
-0.02633612009721092
0.11532470468470019
0.07994638711813577
0.0643567470381549
0.008275401698986187
0.06654148005476244
-0.0693728011460774
-0.03704515995758366
0.040386006206037904
0.07072047916125276
0.07059208565943886
-0.05517292304501085
-0.0191622200262492
0.05455548516152297
-0.07212409373182052
0.06789859454841986
0.028463214325375713
0.0036474092442941477
0.029304114448472026
-0.04119290536104226
-0.003440273978283641
0.05222016903583018
0.06371154459202259
-0.03726493350630419
-0.011390587030786152
0.043224818140795186
0.03472088632457342
0.07776472860012625
-0.04709181186025267
-0.023196561109273844
0.06951246337969887
0.009845000494414252
-0.017453652437582217
0.0013716508509866532
-0.013430605148947745
0.027967838692480453
0.04022301725261751
0.02846607469375176
-0.050337230332189925
0.0689563182210756
0.017553446918762625
0.07340345413969694
-0.07093488417418395
0.015084740028923144
0.04036968929790461
-0.036564173200101656
-0.03055643004463761
-0.11495513093702035
0.05818725701563026
-0.01864834438673424
-0.06830113008555556
-0.004330988269945216
0.05916654072645649
0.02105073079574157
-0.045218265912551896
0.04118222340582959
0.06876835166736849
0.006143865138614428
-0.06462976047552739
0.049064434407672775
-0.06825495623477344
-0.07256105270380774
0.08213195779802678
0.015648294826832238
0.011069880759698942
-0.06289238786005681
0.022335793384983215
0.023268714279816097
-0.031654314617936545
0.028917185499261755
0.010547755391417703
-0.012464621271354956
0.12564602820540424
0.032727134245918214
0.05192495848449519
-0.026965035244264753
0.03570784341194911
0.05023979201061845
0.000285643459533015
0.05513297357617042
0.435694689895322
0.9807169741839471
0.5075122394709211
0.06255337117543514
0.07032217729438552
0.09690587166071445
0.05087232160317125
-0.08741516422941475
0.04190518067849205
-0.03319926597608002
0.03899862370921017
0.0016784830562691967
0.09075418020834383
0.039044020953257874
0.03287760539362805
0.013085756232495492
0.07222281668569584
0.047946064411719176
-0.004195396060270534
0.0015010920404238712
0.00012094836639825495
-0.07061106699744496
-0.006028045834707258
-0.03134220898536993
0.03327971857764673
0.021259284563331923
-0.04553551525885041
-0.017679407369049462
0.06793285854927389
-0.027746838303740546
0.005352295650753645
0.051896611721548816
-0.01235613986201316
-0.06758655120035628
0.12002600660028695
-0.0550865868596167
-0.018134524178363174
-0.07716860963297499
0.007244923698420143
0.0018760628388638215
-0.004192801175498933
0.0003925533652079506
0.03174142864292513
-0.035338060507162004
-0.05048654297985881
-0.06343848120215805
-0.027127504937333086
0.06670410623365158
0.041841747171348156
0.0012263001559996124
0.0536351793432239
-0.07035767573727096
-0.0289873078035938
0.06268607704027285
-0.030387718425571777
-0.046704082140272836
0.02030100625442243
-0.056064165195731853
-0.13666233823721471
-0.02056947301370477
0.06348396724937863
0.03304089682018241
-0.018252951728497026
-0.03893972183458334
-0.081210296956714
-0.0004090327928277996
0.010579235506001705
0.05975458806491601
-3.324652302943724e-05
0.051853955127427444
0.05687871781066015
-0.018624011177545648
0.034335178808114264
-0.016343140051713514
-0.06773332165115625
-0.10280264193591765
0.012104400901265413
-0.02677026779603587
-0.10085854724785995
-0.04653177960737657
0.04836690485590842
0.010061709482413214
-0.09511719158556912
-0.1278845215671929
0.010281229942321495
0.05640585385360386
-0.009889657057057908
-0.07558788228340946
0.029188637775452293
0.015069547476396022
0.015574718530231457
-0.06421563117615862
0.035826771601163036
0.019380654017449317
0.08413770826658118
-0.023716644203589477
-0.025715354379202273
0.042531184513627335
-0.007670701588644551
0.040174278307416565
0.064418914284487
-0.007538680489269336
0.04239116107449012
0.02931927919942151
0.0012390661820758826
0.025903752451817905
0.03568453215551351
0.02440845924637707
-0.013313102746520648
-0.00910766478486926
-0.027054446897813767
0.039158474588022005
0.08332190806373785
0.08475028550259354
-0.11147818678637485
0.015567819560465863
-0.004930925868542612
0.002988649609242235
-0.06489726009612234
-0.01928131281790148
0.012862443283033953
-0.009540806921890424
-0.06002557176427689
0.02729529785319497
0.07876926505794798
-0.06306419318354824
-0.05654881953787941
-0.005274977932885712
0.016949319847487463
0.07876999143355207
-0.0194861438144011
-0.010183538459706555
0.040935033188775546
-0.02366245136836697
-0.042941516328436326
0.032208079023203766
0.09079478495963438
-0.07561434715621788
0.010976896793703656
-0.021704253819480473
-0.048512508987266244
0.04044512882565256
-0.01705106634237745
0.022565595144461208
-0.027691378618905912
0.004683946907698077
-0.00962032724719572
-0.08004551431951662
0.010609811128003355
-0.014910492511394126
-0.028436518210975884
-0.02936332236909113
-0.015784405355820832
-0.00032940106556687354
0.09569158739636396
0.02961889272730138
0.0727506740257887
0.03205816033962948
-0.07931978235350919
-0.020866522328167783
0.10094329136516235
0.5558760044732943
0.9443655254790045
0.55723367851823
0.03641646904025708
-0.0685729068337572
0.06317874741106613
-0.0342865005611455
-0.09098914266483547
0.1493804206536759
0.05997895831526339
-0.07189386501879656
-0.0651245516340503
-0.0080213157615025
-0.008040941681272364
0.09678035787599965
-0.13265325044893253
-0.03511581320571056
0.05832196899899686
0.1003552059981667
0.05508960762729939
-0.05160053580583618
-0.06863829250565155
-0.007248742965947894
-0.035926317873363936
-0.03278578631586722
0.09601007886184311
-0.025519294530342435
0.018326130985692038
-0.028034284299418073
0.006732442252932992
-0.045543336437711274
0.022608083307761914
-0.023740507605639692
-0.006443418172445619
-0.06982320057104822
0.08297835818319133
-0.04092080491810531
-0.03003965699178615
0.013783272929005011
-0.027847618962993627
-0.05736176408944062
0.003863528597192216
-0.03374901290219614
0.07249543549524669
0.05297893997280916
0.07725692843814627
-0.0462321362810053
-0.02420871864519206
0.05805272683393917
-0.05699915100091584
0.03640098890977766
0.038896919607618166
-0.11008832801174324
0.012667021091787937
0.06457867826822981
0.03763865816349465
0.012230943118156437
-0.03634502186176736
-0.022575464250090684
0.041963081834759795
-0.028193355566510054
-0.07046927709956673
0.006639125907460805
0.04953828626414326
-0.019645039759561125
-0.07672971216187456
-0.06917353802447436
-0.04103299731846515
-0.02028259607708717
-0.028696821342364384
0.15160148914683336
-0.02858728035318637
0.018879975398635215
0.04220659121713518
0.013945995590701971
-0.05001433155369964
-0.07613678198538061
0.026899638070479237
-0.0038033372778106048
-0.053760065261675684
-0.00653926671769171
0.05511157511485988
-0.06463656778659167
-0.055391723112818925
0.007356074407628855
-0.06247376177869704
0.06334421814438444
-0.0027863257438694652
-0.06458499850602792
0.040033118365034315
-0.0369890220816222
0.03867102628686674
-0.07939997650681707
-0.026950962202075213
0.01665494074264644
0.06337266708714046
0.038279111589117606
0.018428536824192366
0.0263882997308168
-0.054851714229258046
0.009023133785792217
0.03439397803588908
-0.026062255843871375
0.07863591981968693
-0.012555656754745207
-0.012151538585377139
0.02109260299652081
-0.07565243542240711
-0.03158620591250657
-0.028442450353867443
0.051062513847267246
-0.06519425097608059
-0.06969187726903721
0.009292230335555474
-0.04703427227616645
-0.035106977750749314
0.012789170243988086
-0.052724167538000334
-0.007273727813638036
-0.044491942107404675
-0.03982009328079076
0.04689164958810163
-0.07211574736940722
0.044376985510846616
-0.06611073562859897
-0.059446727922226744
-0.06553979023723674
-0.02897463270798912
-0.03685529148046018
0.009926614612685946
0.021659017785905534
-0.016305281632277152
-0.03452239136529717
-0.007518531164318267
0.023280612789330746
0.05199507819257812
-0.01675623420089004
0.010212565129621215
0.03838218305568949
0.06561074626557563
-0.10533191489237906
0.03557432374400132
0.021230678240221443
0.09592031312985455
0.01592422207871501
0.05746481905839303
0.04417975975130897
-0.020067460484229104
0.02769456662298796
-0.005448755505338604
-0.0032483219258756697
-0.030428717065050594
0.07100569090198049
0.1120558512528381
0.46247578097980124
0.9869613122499614
0.5712329571851636
0.0848111557933913
0.08906239150761398
-0.001670808075133692
0.009524676776304045
-0.08750876888018827
-0.04955145322245178
-0.01484048373616307
-0.01765638004016359
-0.03510731426420079
-0.019804722653327212
0.03620616522274101
-0.061339261904016854
-0.10256509111345957
-0.03636008237738577
-0.0031179175460482743
-0.019137816493682087
0.09578948245107725
-0.013373669968014076
-0.007351362907674664
-0.01965862180254644
0.06546661197455342
-0.037633136763174875
-0.02968059904687786
0.057471914611062797
0.038566748817226444
-0.04683447513729877
0.012764497824854285
-0.07320151296384475
-0.06634075527564696
0.032068266295798724
-0.1039132419340489
-0.04451222851666713
0.043255980203244365
-0.0039015712339351264
0.015732466540420077
-0.05826352731025023
0.040331389263566685
-0.017598227531918986
-0.012723050831624644
0.07016928986399215
0.029237196163569103
-0.1254716449866885
-0.0004688478036692996
-0.024744862051114917
-0.02101870247423961
0.016746243230958354
-0.006371751750962301
-0.06789608774100432
0.011602239604539552
0.01834751305404535
0.018637102671975016
0.0057952900859230515
-0.09141298223481614
-0.030352303174948327
0.014248967107148167
-0.02581459461106709
-0.03476031104898312
-0.029984362645360387
0.07103934174479475
-0.012741146250075506
0.08642807765732713
-0.07112649314493384
0.0716954628010791
-0.005331577485615118
0.01860361470487435
0.04476421535515395
-0.02418654477549741
0.03661608854528715
-0.03288985808271785
-0.0791347979869432
-0.0051391667095393185
-0.006354690791552097
0.023505452401733407
-0.06851586027222065
0.009507743177458174
0.024157247484347635
-0.045546154329146014
0.053102942625284255
-0.0015669410088557144
-0.00915964532612135
0.08622597743852317
-0.08406756250155566
-0.040948717198813184
0.015353265309348212
-0.011449127078396237
0.030517472466484247
0.013016845328385054
0.08889514957443045
-0.16755397473917835
0.009843642823871707
-0.0757603897385315
0.006259749929513033
-0.09992064985925313
0.07638501630790505
-0.046584964714199546
-0.009756288114622005
0.06277474732106922
-0.009277080016363995
-0.0896082452884967
-0.007505166675101097
-0.012279353092763614
0.06822525242778281
-0.008240570718799618
0.013661724738426218
-0.0500919932345488
0.025200033240844362
0.0018240517924941432
-0.1100322320077615
0.003390279996625419
-0.01338536763652252
-0.01964987823380451
-0.04245671122515161
0.0363882146000386
0.039628430193897425
0.06493757316617313
-0.041888036128333764
0.05447706524327831
-0.00678803544921068
-0.028337526133911203
0.04107057225144331
-0.03798221063260984
0.03481576560648751
0.04631818427331441
0.006140731223234344
0.06966916529046914
-0.014997489160166105
0.0631009449248469
-0.04124627085493439
-0.005113383529176536
0.004092618295494449
-0.006566040157656556
-0.010353236221965668
-0.045500702135349215
-0.1155595840006759
-0.00936634235309136
-0.011481161354487035
0.05621818097884649
-0.010946188850012565
-0.017614769700555564
0.06849616503910903
-0.0797129681141806
0.06360752311155747
-0.06721383837185312
0.053149515582461074
0.08452313374690168
-0.030222140455331305
-0.04138263071790694
0.03811071677892135
-0.03582077191072802
-0.026066438218218597
-0.12720110182643166
0.08489899454783466
0.13795229916578816
-0.005188803894491422
-0.0675022217673477
-0.0013184961124957082
0.045709502570798845
0.5038066323634259
1.0316898724443766
0.5187457705235605
0.19844613943742992
-0.03975257103262231
-0.14461416563588433
0.03298178417089382
0.05467066862458441
-0.03845734399790986
0.08780780265069277
-0.003659878235683923
-0.013012001383320333
0.124111252725694
0.0007015581010217331
-0.015460458862352963
-0.03032097734189675
-0.07749822871247872
0.03934152755975001
-0.030431859355694615
0.17151353144484882
-0.004183704813992137
0.018902307743974812
0.018944391610453862
0.06285556806866253
-0.027847180355429685
-0.0016783703842519902
0.0436347777756649
0.05305559661950925
-0.012019476277673382
-0.003051729844648912
0.04648402224691486
-0.012914927275653519
-0.052058471357235674
-0.015331575874851178
-0.03445984443371559
0.05504044426840663
-0.07608455828258279
0.035748486965538194
0.017091553184386786
-0.08694559850784339
-0.002317160742820058
-0.009341519444820858
0.006467698066981276
-0.04535731733015537
-0.06495986274244436
0.08649782131918952
-0.1307101475732796
-0.00828591760727953
0.012588190185529256
-0.051730221148799584
-0.03424906211310813
0.03394169556843579
-0.056348236858552905
0.057711104361859056
-0.12526520621462242
0.01115145619046606
0.048896979009644514
0.056412335039684805
0.06212467392135457
-0.006884724371160437
-0.019175407468699578
0.11190071643449893
0.0078747247086666
0.010718652175839585
-0.04831108248663058
0.02167929073918885
-0.04872376436640362
-0.034118397385067195
-0.012424009052833012
0.0020265138318300005
0.09222642434160414
-0.03416048847485699
-0.09910968643622581
-0.07899920621149815
-0.026614193914394707
0.03711091255534006
-0.03359701153405744
-0.06872185105753034
0.011642695991432705
0.03013153972939836
0.044452858583653755
-0.025404932018532885
0.04584748911824299
0.03036943346814679
-0.035657015600360234
-0.11426467474348263
0.033440916298392
-0.06862504821794216
0.026265727385394018
-0.03665596281255197
0.05129803383858489
-0.02528228770084165
-0.1160695265253894
-0.03909949369988474
0.05500013546149658
0.03667651552154862
-0.03300554118535797
-0.06860979414799967
0.05384474397978411
-0.06515004244392876
-0.013119630988627149
-0.010663366136020144
-0.010289329742265303
-0.010652291777868274
0.0059588710501547945
-0.0377585793000787
0.009768874139007337
-0.07125439255563219
0.005407317858822085
0.05214648635674231
-0.08012192242862469
-0.015122213772895727
-0.0057500877843414625
0.0032061497512146197
-0.0018728657882794203
-0.016221606290154386
-0.0461068378969964
-0.04512804849782054
-0.006887411246719082
0.009813362057935038
0.01769733060119772
0.04113150932115106
0.024466926840493924
-0.026523673528041126
0.05371469541769837
-0.001135252823103454
-0.02683174627441523
-0.06043652338655854
0.03812461700728253
-0.020344514367247706
-0.09008529373274793
0.0057763947233764705
0.05104280408155622
0.01987782094615861
-0.011691255023616506
0.06126530034195326
0.061645307327647975
0.031966118917273294
-0.049058308569188476
-0.05984004812071836
0.009192573235359615
-0.04385592748730919
-0.014838967655289154
-0.024883249175303535
0.028752979290086345
-0.05747219058196165
-0.00796880028943272
0.06960639556489966
-0.09602244272600222
-0.06320594361672653
-0.009672433376338895
0.051730162651316275
0.05487732382257077
0.046127783339299774
-0.009015926548939067
0.12709469434029705
0.440042473743978
1.0330542183141025
0.44981229572304937
0.14262718998364718
0.005815702930016388
0.06398664121779195
-0.03795928849532221
0.060978927737095616
0.0939673505123957
-0.04969978219224935
-0.052076096996721756
0.02307751558264027
-0.09907388063726415
-0.016404668581188605
-0.01613769256334179
0.029517209687117116
0.007154267211960191
0.051904292204565106
-0.003435056958343639
0.0686521730715387
0.01945360444643133
0.01738722819850388
0.08280116631398764
-0.06675354868625455
0.019171513704629505
0.035286675593269944
0.062240662701675976
0.00937009580888039
-0.0550569799436455
-0.06480663863612007
0.023200651521557668
0.07321971592745614
0.016546113436406575
0.05210822203095338
-0.0038597092157266915
0.06965201344157772
0.05920804509015387
0.10892327317043245
0.012886028589409116
-0.07845352238450787
0.024342918922611884
0.06565815370616655
-0.06898776383351676
-0.053355976310149
0.016752276921527566
-0.0032262649863402607
0.01304172419085819
0.04867050736002883
-0.00855952269302942
-0.015017629596794924
0.06188825206374016
0.02648524689322171
-0.0033337279871450986
-0.12420952257733493
0.07298536310767363
-0.018727315522285095
0.013640909471455898
-0.003508769497252464
0.11326578983733925
0.04860904782794627
-0.0430136118610428
-0.04769757451101143
-0.01868808982688637
0.021045183847125573
-0.021356984999472223
-0.01128733830303997
-0.06455729917073902
-0.02388089810351594
0.06632152769865922
0.019235741047299287
0.0008070117282854826
0.08959100980348358
-0.02634586161039178
0.032668510228624444
0.021716761793092537
-0.021368992281464095
0.04396855773834213
0.027667355773096813
0.04537796673451603
0.08355883342898401
0.06007960845175334
-0.050661582410517686
0.040919072135383976
-0.0032853976076295636
-0.03967354368729889
-0.016147448405097894
0.03102481568094681
-0.014674370938200143
0.0700660849222313
0.02709078086822695
0.009969213032196228
-0.019977746183628253
-0.007744996714909099
0.03641704473928541
0.007112615039693241
0.047639940224645294
0.01221471749557941
-0.01447385830885341
-0.025373683700301422
-0.1270408886679599
-0.030685710474026514
-0.05709364213207733
-0.02481010506975825
-0.09829644866295356
-0.021972024045628757
0.0013841697279974407
0.06486897335336775
-0.013375711055277725
0.03554787369174043
0.02657163365234974
0.04227035703802171
0.01535263017546109
0.03719883645883393
0.0009366118185519152
0.03634395572924695
-0.0033024659654144004
-0.004799275856914163
0.05395713492028917
0.02050241484373704
-0.11814256886487735
0.008419214676421819
0.0052800849242334875
-0.008744550656783713
0.05351822714845286
-0.05671138053429586
-0.04195060102791742
-0.01067896760564428
0.012016441284421864
-0.004479929092248288
0.01657138265825365
-0.03753589054830395
0.12147127103455253
-0.05740790166311566
-0.018052596568062722
0.15282804605412306
0.01801813233589773
0.09220975142808775
0.05140685205180093
-0.001731876619073346
-0.0357309508575709
-0.008158039094626304
0.011632620642682119
0.04256747856779726
0.07745297847866706
0.03098215657486332
0.048847456156927316
0.046386128780415356
-0.09801328868714343
0.03201479594827575
-0.02097307135911879
-0.07258235755015176
0.05138904963123031
-0.06474925427761831
0.04296984821671859
0.03218890435920138
0.011868680436567096
0.047374971643943345
0.40989874002501425
1.0839012767858105
0.39269288456759516
0.12971990290591098
-0.0021152107932763983
0.11031058237204071
-0.005769284384521987
0.06740311467144851
0.028011652727517156
-0.018120847342334642
-0.04682068070281712
0.07631636497974448
-0.002596710170732491
-0.03671038092638241
-0.0868793365280186
0.04290738793798392
-0.04669980841652349
0.026718446284531034
0.029461889513963085
-0.008723876216689649
-0.01653501414205123
-0.00809753308985098
0.030136336974735663
0.07764146860273724
0.07691245528934465
0.02698965049280763
0.08164170593529826
0.010750886759961789
0.02528703963511805
-0.031227753443218653
-0.0001150109299861775
-0.03313993151587357
-0.050892675928152886
-0.00593729433052842
-0.07791533743397755
-0.01756286522600335
-0.04565999940238786
-0.012242239739101803
0.02900231934435491
0.001526185350896205
0.00013305674176682805
0.02163224997468413
-0.044121868832922906
-0.0004542462342517908
-0.01424944830980916
0.0943770030135379
0.020391048346133943
-0.05229055194573806
0.10299620554377616
-0.04531751257783846
0.0027792229776896537
-0.10416896805658063
-0.029643870295260468
0.10892507708287441
0.0002715319741203136
-0.006090156638998735
0.00020784089535802873
0.03793484021888589
-0.06953666332152109
0.004189134210131268
0.01605851478532309
0.021653959034809156
-0.048366765824780014
-0.0690732408432911
-0.0014628951102355313
-0.03896059587287561
0.056472225082591136
-0.04747670524679115
0.019388017781769733
-0.01197170425903151
-0.007352195952582086
0.0056856580039902375
0.07702545801010424
0.06217061106275893
-0.07478180842168325
0.0909253747619925
-0.038637991258600214
0.04437425794190558
0.02202562063988551
-0.11590865903348097
0.04356761861899248
0.09624205550068679
0.05524122421818032
0.02205623010223738
-0.0018032006748423726
-0.025545584873115965
-0.0009049328842763549
0.008098127211462613
0.06980817833786915
0.015238494365559822
0.09960401731659822
-0.022396509086206974
0.08464361665227356
0.004571737194371333
-0.030512602384009553
0.028721588028128804
-0.03309394590748774
0.012381693234770723
-0.02300027037183157
-0.05568188350773128
-0.05858909942849895
-0.07092862942004194
-0.023242175920722186
-0.041698987925553495
-0.03325676987033648
0.000828705476042664
0.033489416797218584
-0.022321821708639417
-0.04798973549561039
-0.018228067119738702
0.084763086053894
-0.004296908699309244
-0.05546419216482861
0.028741510999292386
0.043568395737685346
0.005481844737639282
-0.031813109072841704
-0.04390528121575864
-0.013417866044003336
-0.021531814948405194
-0.039275290677315965
0.021108414676037898
0.036073776160712244
0.04012018606369791
-0.033455778360625375
0.03526205781124963
0.08547659449579371
-0.013905054784240856
0.007667055867278511
0.044055797616452494
-0.002338328672300403
0.006129672709151086
0.05124437078872458
0.03557050599191355
-0.08457760816011654
-0.007954467348459828
-0.06173802369533892
0.03596864348280302
0.038650278188991916
0.0056071487620975346
0.06392658673115702
0.0399620384956799
0.08677683732044655
0.00492401163770873
-0.05679246720683778
-0.049278943415770396
-0.013354739597707355
0.024490948753823263
0.034316084512664616
0.011088116966703112
-0.028192803760218817
0.00649653160916954
0.0076933761847279795
0.09360466659047467
0.5123673437967348
0.9554530194520935
0.50309090757722
0.06826003278462006
0.011757233188836386
0.0197760213945085
0.060231443096445625
0.04847839736166482
0.06464693180826366
-0.05244375303343383
0.046617879095001036
0.04721326045774013
-0.031299635078597926
0.1415929634870332
-0.11238802417787196
0.021983359476996325
-0.03503265791811928
0.07247516976774986
0.04788731850500954
-0.03214411840853394
-0.0061357328114828415
-0.05337266761447369
-0.0231227552905226
-0.014760041117064405
-0.019225177721950412
0.06745610124229298
-0.016535645701063677
0.01807634054116243
0.012416953598479288
0.02085467295945022
-0.08867358492037203
0.04756793937516247
-0.017214646816529896
-0.049702576483347055
-0.047793674926560364
-0.03307649510672087
-0.025543451524192885
-0.0272476934901971
0.048275959872859146
0.0632028459307851
-0.028010627080248485
-0.0296435923984292
0.02458062772601093
0.015677257290670193
0.10692317221686656
-0.09610250650698912
0.04133885566506368
-0.08845595014502733
0.00500187402514983
-0.027582115148848202
-0.011545088219820565
-0.08461162810632944
-0.07357203088186266
-0.09526506672400559
0.01808190424179776
0.07353725203327646
0.01858575677398405
0.05499646597366074
0.016883171456343087
0.01892274341162982
-0.0029208466873281384
0.018445796911010802
0.02488134195787103
-0.026854081937198643
0.0335888360577505
-0.014630782224640435
0.004368648398232182
0.05804859438487037
-0.17188347865140438
0.02240454186096522
-0.05931475782063187
-0.03401131801826545
-0.029528331300622684
0.028969366205434267
-0.0010815184260728288
0.01565271714083925
0.04039378997978141
-0.00865456467598267
0.009389165116452413
0.01052615911221208
0.0409451975214223
0.0036976443948218193
0.08096586937489002
0.07086989279304173
-0.13238172341467355
-0.0011632120495780598
0.0796005734184635
0.008112422763899839
-0.08877829085121453
0.11347876135173691
-0.010586658486244009
-0.01228571292617731
0.04291731236368329
0.008940271093564598
-0.0016679942913762078
-0.04786616206556898
-0.005709218351449982
-0.05510855315080752
0.05452524184847542
0.009434496016181532
-0.03610999945240962
0.039897599221762774
0.0274003670382447
0.0021862767851906543
0.03773880605616661
0.02794057335292944
0.0438406201847442
-0.05361440321438163
-0.011062458915121903
-0.05711024135423042
-0.02250393857041842
0.019582800683978413
-0.06254867412513498
0.035139239166823794
0.03605060792757959
0.08934539540967311
-0.006720826633136074
0.02332493033716824
0.062113978555336395
-0.023278077075797578
0.08680245042117428
-0.004201911201534197
-0.043939926302225464
0.027920009275464744
0.058400616181057644
-0.01791695962232039
-0.02134732668356541
0.06825543156175706
-0.04731839280262015
-0.040108985130488384
-0.015271654745337822
-0.04209418214664551
0.06145766895393422
0.023538079912398716
-0.007845689768150258
-0.004215871997729611
-0.025387306270241064
0.08105212618657166
-0.08541421718332197
0.043551565991129165
0.029339260195958256
-0.032466471470351164
0.0758473819953947
0.08554789544402217
0.0042392595540339485
-0.017977630519609725
0.036384986581283495
0.03968124934091242
-0.009699350003963686
0.04212440296382278
0.03171139647880374
0.05514199946556894
0.07253184729640387
0.03947046538156149
0.009965071673137683
-0.01660187969105906
0.04981651710890287
0.45818084278305654
1.1060299233657902
0.5580039726309292
0.08120874368963836
-0.06891455293146335
-0.10288354100966789
0.02611826026828867
-0.011203063457440043
-0.043754462069139216
-0.033432735684025834
-0.021686985924660934
0.003613838780908873
0.09181292758021983
0.006420708156852542
0.08186764808341615
-0.0447397449467592
-0.02203162240225913
-0.021843564264385933
-0.036996056766768336
0.0007845027616824717
0.030043050507548293
0.0023626147115323
0.059206194152788785
0.03037650038668845
-0.08139619589658303
0.05423691068719499
-0.09226400138673722
0.005976075064630623
0.14113190424383243
0.032340636156543597
-0.046062576720753784
0.13418735306096416
0.016372346927405548
-0.10297673102413288
0.008220306194206467
-0.05228502119247952
0.09055059987670612
-0.01494415338738153
0.08021004368873835
0.026563121861685215
0.0036639531634935045
-0.04196253128593281
0.02553254600701831
-0.08781379833988565
0.0858845883201447
-0.0001166141244965896
0.03256941464123295
0.08955872200345609
0.007475858290666832
0.010203701976730477
-0.0015941588893611629
-0.06982878663142211
-0.05965111686595934
-0.01896099100283406
-0.05524351605217486
0.005288078870327517
-0.004493805410561091
-0.05049469810182055
-0.011196622642613835
0.059948188597613576
0.004005840520214482
0.07582044076551392
0.005631145765064687
-0.09595798363363053
-0.09681566900110262
-0.01790751152454242
-0.0084970046527922
0.0009796206494473551
0.10359833609724255
-0.0061697961135850354
-0.0004124847192299672
0.05084860732789673
-0.017287352202794887
0.05602130554734128
-0.060747276634716754
-0.07253989967394621
-0.05658362359847701
-0.09032196772239404
-0.04570700862754383
-0.002281432202726102
-0.055514930361619266
-0.013648637386078756
0.026942146292517156
-0.0464243820392382
0.05395070900155946
0.07429495233669663
0.0642453968131038
0.015148539605666837
-0.004581549596451017
0.008157435597812561
0.006798889770282805
0.02432574432810793
0.01934185947471704
0.02648664730827381
-0.030684294974632986
-0.024656474615685924
0.12643360262446782
-0.045779889033074415
0.08394194043110041
0.07474063525624261
-0.042654339324477805
0.02324130403587807
0.02456023123993018
-0.005614647883175247
-0.02762368406568414
-0.028769001422050834
0.050477047468121844
-0.01268766855784089
-0.08518188438811197
0.0573071401680518
-0.05401927235235755
0.0676205225300304
0.007805148961511979
0.0405585319829434
0.007262233087364918
-0.03134048478330841
-0.11116952254690947
-0.03176252451134026
-0.007885072476051858
0.050695528045784456
0.004808918651585881
-0.0014959782600680385
0.00585023058409781
-0.010926985162483735
-0.05311491317236512
-0.014716413964146836
0.03378995517653387
0.0007095887042881614
0.1098577837366618
0.022357884842502965
0.016986533085822722
0.04069489206360369
0.045567316091338406
0.09011050707858607
0.0035136310598503848
-0.013501559947390586
0.04022734562411413
-0.04833763826558475
-0.03565451185845746
-0.004507371980459285
0.0020862040687109683
-0.06683794363366681
0.07261635362951843
0.03464859172999285
0.018036709950247396
0.0232245007006584
0.02014811462846531
0.03804131485227327
-0.11672980038231676
-0.02724535386633563
0.0037113374988138287
0.003510007746369621
0.05107730864274456
-0.023359212358238027
-0.041127607205904804
-0.12740704975751446
-0.027314339647000408
-0.0502619359968479
0.021953480127739164
-0.07519410125709869
0.03643108175492869
0.5482121732038224
0.9806525983645545
0.4939117623116993
0.026073687054497738
-0.023755749131541853
-0.03221081809376647
-0.07570008266324169
-0.0012202371511786086
-0.05271925435949796
-0.016003358250402604
0.05385684862650241
0.13065867640806347
-0.07866974044847286
-0.02939571678446125
-0.10958759325949162
-0.032176968006500495
0.00756409237959739
-0.013250520588026633
0.035481014246128845
-0.02616737650260639
-0.009390204091581115
0.022604569102176602
0.004455700584649168
0.03592032764360191
0.02440849430643067
-0.11687017196918176
-0.09514615276628932
0.05843745151652834
-0.06575670479968065
-0.059781180451207665
-0.003725594763297287
0.01328386949161578
-0.0675629041812643
-0.04498181181186756
-0.01973161975605223
-0.004911359482466856
0.028739780461092518
-0.006079792887730526
-0.022571731511496895
-0.06273443044834436
-0.02769725445511332
0.02479197843688589
-0.011909615709104704
-0.06362614844199647
-0.07463905087079384
-0.04868664082988625
-0.056895731153971764
0.001607639375375681
-0.0042838600408264425
0.011694807895505671
0.09651392389712632
0.07890026411488092
-0.06638533618547537
0.01304891857034457
0.05868756060718473
0.1039046386291108
0.054450682498301144
-0.0009962616650940586
0.08953235166830283
0.039710637089978726
-0.05578582267787379
-0.0762802985012278
0.018776267241926995
0.04417742758210243
0.17320808364085696
0.03422176710560955
-0.02410803664573404
0.024597909429737504
0.004266639326821702
-0.007038815869462728
-0.042196379425241785
-0.00958027171047669
0.009238920661285777
-0.050809820356350066
0.04998917944075335
-0.029239627424763565
0.054238340415576625
0.016210043413448724
0.0618736013457156
0.022483791231266197
-0.007440129205569417
0.01087054761920347
0.13492894793166368
-0.02841294169518633
-0.01121222245307999
-0.0510154826264864
0.006888948862248991
-0.005928553797677253
-0.00268810565008996
-0.03528146701564035
-0.016994014579950572
0.051548161847109975
-0.018169707490036182
-0.0061036256512692335
-0.01309330458570064
-0.0845055818443245
0.05294953091356236
0.10842615615714175
-0.07270977748881625
0.08620111482604477
-0.08057176572672471
0.028612117071453176
-0.028638796121429735
0.005585546306448808
-0.06409197568785745
-0.03804325639740788
-0.006305508251010585
-0.0313979052717105
-0.05787691709428934
0.011966380494091926
0.09074308167840561
-0.0850214641020724
-0.0405367240695201
-0.01094529232503244
0.06739246382230012
0.027933094744719684
-0.024974650101139115
0.10156726227158062
0.08401411126501551
0.012020908385153845
-0.015225248990185715
0.03825241606421316
-0.07882718754805895
-0.12999287910682852
0.042394246700118154
-0.015101481875503493
-0.027603001982229026
0.015715292696631186
0.018107864841925492
-0.050928784797075626
-0.006684018498453643
0.06654874432283174
-0.02255745352427228
0.04161559382287867
-0.022359367922535234
-0.02930052875466956
-0.05921370446919636
-0.048278725393907186
0.018543062712112552
-0.0041095069053307875
0.03212806774270602
-0.1106966611810444
0.03840533506404775
-0.031543642364503736
-0.06189231629556985
0.03083842479182492
-0.09238448653137353
0.03375006044253203
0.017713743554753036
-0.016093172991952353
0.008178531712960985
0.0038794572949929166
0.017479699173605933
0.0829473341567365
0.04340181611891051
-0.011793645346686293
0.19570118872942882
0.5021712427167865
0.982657950137293
0.4621745366273576
0.13548064726446354
0.06388065942047753
-0.011943317425659442
0.00390994380301078
-0.0671940391983931
-0.007016444244219071
-0.0575626939818251
-0.02446996579498546
0.07850896874776829
-0.0504975479798818
-0.010758636902169964
-0.033905681752721004
0.0443829903007309
0.036900993378693944
-0.11768154937523977
0.020107222422200116
-0.07998732059281694
-0.006966141396247117
-0.026213288524813333
-0.15217415709757437
0.00462190858952102
0.0429216879510308
-0.06347167967627669
-0.04260585922996233
0.047997716274455426
-0.013402894359515756
-0.003059877502766274
-0.054922119790547924
0.0038342778706607346
0.05588222851388383
0.10666336377206415
-0.01291528151236504
-0.014895144628667041
0.005452349089657665
0.0736237841353355
0.033859883939580684
-0.07924962745905367
-0.049786871668349275
-0.03609459064398905
0.03934059309373497
0.006889993367443736
0.03888562519338355
0.028952639854061324
-0.04347366462524394
0.0375816876268813
-0.03383585886901381
0.14767771495473092
0.05034662697665948
-0.03247134944275017
0.07740946290798274
0.0715882576457204
0.01203246927469804
-0.06468273632494487
0.007526532530888194
-0.026594480617510116
-0.10407684275863543
0.08145840174752822
-0.006359690324293474
-0.013420411866281644
0.026234028043984964
0.022223711501647328
-0.02078112406737754
0.0504693083061744
-0.011912046334762647
0.036805261203390414
-0.08178031571777597
0.009762667472872952
-0.0022204292398129654
-0.017150770614491974
-0.012624460635215565
1.9278093033443492e-05
-0.027109766820578297
-0.0510227652921707
0.0516920348797184
0.009068949087962018
-0.028625385305791853
0.040290713033918776
0.007749538701848863
0.03971577335412479
0.036345962133133805
0.08417253290091153
0.0016629265887673787
0.0528976727779354
-0.037305741199345425
0.05633692389523376
0.002857620133523117
-0.15400677780931982
