ecg
0.011089050740621813
-0.06731029161616463
0.04510459396431154
0.008252105613317563
0.040746971078131355
-0.019053294391068423
-0.048026106634750466
-0.016003603568900147
-0.039690221514800034
0.017187610902551043
-0.01478941783958985
-0.030668745832981237
0.06131495812284184
-0.05547937312671202
-0.04006833323367903
0.07420863714443841
0.0677296213786907
0.13173498474561118
-0.040417643886263864
0.0006041557337414619
0.024689401182155648
0.04599920462649389
-0.07381689999895136
0.07954245042102877
0.06424410942443343
-0.08509500407971654
-0.030078640336826265
0.06440658770131705
0.07888380528383224
0.04428295714786061
0.025389546785119795
0.026423644146489702
0.010269871842332148
0.02744921725634802
-0.0002844880402228188
-0.012189218452273038
-0.08117677073471675
-0.08798619656111473
-0.03145146303788324
0.021252670502424468
0.05215379077261648
0.03136268949017313
-0.004028357455680194
0.05164002045482544
0.00979367014032397
0.05310794560763565
-0.022015069033606515
0.08525376442343857
-0.016071505663201018
-0.0011520765329784903
-0.00488096131083278
0.12051813300786103
0.044617352408833744
-0.033834059090926585
-0.06360118028430195
0.04509881147918774
0.0016651615567477498
0.04063117144171674
0.07390405536866892
-0.06684379633066011
0.012260604550119902
0.016360587469614177
0.02547114123009424
0.1040302171490915
0.00029588095082267634
-0.1243835555010394
0.07927328973329215
0.044196607350470735
-0.01358898575431809
0.020819858069076255
-0.011280148249057032
-0.08695303631645239
-0.04637859914779536
-0.07054247335531558
0.006371746408882957
-0.08459119051144556
0.03435493492233173
0.02550753131569716
0.01174552952219379
-0.017115138601007687
-0.025132271157993866
0.07074398027560934
-0.065075813545226
-0.07678783424040163
-0.049007276468806676
-0.11957179836449124
-0.005236381352282761
-0.00337536295565486
-0.0015180894342710061
-0.03651627746731674
-0.024259478357641626
-0.05004803994949774
0.03889690721271654
0.037999565811649504
0.01488264806048045
-0.06046435861347843
0.0060682537779542245
-0.038783090734595745
-0.01936235461341194
0.04631584336076586
0.03993151944780759
0.06446687529404425
0.03208935363118159
-0.08472125090795747
0.05470170283645886
0.009561853190182268
0.02090615301467952
-0.026841383927798952
0.021561422789110773
-0.0022602859058753508
0.05884554096881407
-0.03462941134065909
-0.11264849028885214
-0.028954668955029145
-0.013160551552060513
0.0063147680208920365
-0.05825385775717809
-0.0020564903458119544
0.055211168922927295
0.03841406539130369
-0.03796876521066884
0.0002925618316282616
0.09443245091474377
0.023667354066623108
-0.024004947806885703
-0.09268389977800863
0.04398536791434305
0.01205200251195004
-0.015664781472357076
0.029678488397160304
0.04056736053413187
0.11051702625700628
0.044210229872377785
-0.04400684480100549
0.013071387230311513
0.04905002660762838
0.02899764277372275
-0.06733043033158438
0.04625486641249641
0.11360331686803299
-0.04865471321414415
-0.07471196151366573
-0.06232027989026398
-0.015767802958822782
-0.006738031422844271
-0.018170651999873885
-0.020110471685970778
0.01620249786283424
-0.03455584818133984
0.004692896057200662
-0.001157751377011595
0.05883599125406133
0.059081732751591065
-0.019797094996669443
-0.009607285012402066
0.05086831210243804
0.09965308106542858
0.012305632648560766
0.060844986082529084
0.03293591245035101
-0.06619457739482924
-0.0005311098132082443
-0.035834600601690206
-0.047671051443235066
0.06295113541702904
-0.0788398634818606
-0.03414206781875082
-0.09753873806404935
-0.027754374981413837
-0.018122208408089587
-0.011712195408189968
-0.04703351217589187
0.09090350236806627
-0.06636066000595821
-0.032061239895892414
0.02808228172118314
-0.0027251590237031874
0.024240175864561855
-0.02939316176362435
-0.04761625753092189
0.00502858513824191
0.08000413362459313
0.07282620569706176
0.016743228336845727
0.004152625267098709
0.024673346301980398
0.018683187252760275
-0.03076671934023107
0.006825517549075336
0.0511689403450121
-0.04063990726273321
-0.0584840071732855
-0.027356101697643284
0.005065566721112156
-0.0014153366434629057
-0.0007954648954470829
0.02717208256825264
-0.030490940064699025
0.06108957634803787
0.09305575398207822
-0.035540602026310694
-0.006633362271960873
-0.027331725852518165
-0.00540588219024205
-0.044124400984881254
-0.03774803343533406
0.09769712088017701
0.031046341491822716
0.08249534377173161
0.012740425935883148
-0.03738404775233199
0.01203730792330074
0.04903727850777404
-0.043233863654037454
0.049023366764993186
0.04771973192895739
0.49195521293662153
1.1447047696049824
0.44560822188698734
0.11325291016857036
0.05756818121805647
0.01927380974499295
0.07644494166436927
0.04849404663976931
-0.03941420615063417
0.03678008086090223
0.07161460681709862
0.010580834616113853
0.00987165031941425
-0.04828324104867047
0.006247114967131478
-0.05666238992278171
0.054305249993692586
0.008120552152021539
0.007387586759420696
-0.044135128493122705
0.06544724982718668
-0.0300362053257704
0.0013915222018357585
0.044350331658102336
-0.025490536653255236
0.03126079428949451
-0.13738696805009895
0.009675811728847128
0.03763393423810765
-0.018986616929591263
0.014658465364466109
0.029589573674639137
-0.02188033630994304
-0.08044872475758359
0.027157190916151985
-0.02062822724363057
0.06390216327496978
0.045468142512339965
-0.06979986773048337
0.03778589026825595
0.015020779007398564
-0.03398599572299634
-0.04293442084454528
-0.003229143845200124
-0.0248171890029081
-0.08375457666230568
0.04916866731422966
-0.007569855507334707
0.005463799145622401
-0.02061345713481015
-0.056334295785641565
0.04888532544751625
-0.024816931790739502
0.005750389655836099
0.007493528753325364
0.0007602068689270236
-0.06200101366048565
-0.04549749916108362
0.0778350827170577
-0.024522485860752403
0.07917495685688647
0.014375206663409868
0.05824925369206316
0.04809454650235524
0.04847888321513863
-0.06713180595891521
0.09600654057446625
-0.01684640257635346
-0.04624525734945104
0.04162975394154711
0.06676109042322763
0.035846257864403736
-0.009165224586996704
0.035095123545765904
0.12370960610622678
-0.028133936724113892
-0.043800613846293884
0.014575216194501486
0.041782097163357027
0.07742761949306555
-0.00797174321300617
0.007977832492879275
0.056576275471299155
0.08844663174934204
-0.018890458801750748
0.04735216061204409
0.0015944480230445951
-0.028675745400001965
-0.06335503533866745
0.06491552754323587
-0.043104481196300226
-0.04367770050685823
-0.08556027756570833
-0.06054230954104835
0.081935834209107
-0.06353712629144538
0.0377768302276892
0.06088885471801617
0.02678022622880935
0.05258153884938136
0.04295737666116077
0.042373326852805815
0.007602997225684168
-0.0699175792388531
0.04361219391054534
0.0013384924183554518
0.08435747811269338
-0.005796745634141093
-0.040847987787462035
0.04369761080582712
-0.01602951247958871
0.00578584408441719
-0.06532335860830664
-0.04700643791041732
0.060528321880014495
0.01843467818965026
-0.04253403640123471
-0.07152777462723334
0.011588977043941602
0.02227845050187833
-0.0564640284157286
0.02226728740289416
-0.04562856739504518
0.006063578134791864
0.0056064490060646855
0.042083224550649445
-0.04210783197848208
0.03777359644892884
-0.00922378427658354
0.014228647779459544
0.020269853452109295
0.07253584275896484
0.021326563397887383
0.016660661988134966
0.029035827200238902
-0.09928186212625639
-0.002909034680502087
-0.034429402913679366
0.01781022293059674
-0.027734729335195735
-0.02468329833174853
0.06178059063655883
-0.07413646245884349
0.03025303969316986
0.09689743697483394
0.11934889987040785
-0.04231125839959209
-0.017009174815226718
-0.05036799465115974
-0.012900424078858648
0.07427617206383898
-0.0795933389328401
-0.10817666046650326
-0.02360649528492104
-0.06767269752095662
0.05428063188819646
-0.04399911188142244
0.036650248680551216
-0.0071367579033977105
-0.002868841902077314
-0.09413765918716654
-0.06455081905977046
0.021383747477744727
0.0416218393480533
0.07040271777609204
0.01935838797034342
0.020163463046674664
0.031045464702460408
-0.02025242533160276
-0.020340209587137285
0.0178399663030325
-0.07247906219909123
-0.010785355639831943
-0.014263856013124418
-0.04779245758421197
-0.021554382446900267
0.04681750645530289
0.011790686759629188
-0.07667298730916264
0.018565365221945126
-0.038263152449831694
0.04881614553550751
-0.039205715739830074
-0.06407009688682513
0.0712936938464269
-0.10585954433087214
-0.013912972529818244
0.0814257466265047
0.0026774041333850387
-0.08331200387810717
-0.03369551908902888
0.004505198023825055
0.005389193232160396
0.08529294730018852
0.17213749690595284
0.5354477560851254
0.9762870262099378
0.45418225552701097
0.20633849966312406
0.054678329254740116
0.010574868543086008
0.007871678616336456
0.03958054164347502
0.007939043490137193
-0.008121956798108718
0.07368041915230866
0.02415742588326715
-0.0027807630611197975
0.021929035081263138
0.049904910159661024
0.005212017110015483
0.025759682973676364
0.05956484150132422
0.004850882070241578
0.015442485653954558
-0.1058950611254844
-0.04749287061756672
0.02474409187512402
0.0270260556687987
0.07152749925286533
0.03959332973777406
0.04134619520876165
0.07394174194003868
0.017339460285004476
-0.00015302716120320757
0.04792434428925917
0.06071492396211531
-0.042545232033607924
-0.13140704194117198
0.0032420277113743446
-0.003719463449453342
0.027234493734972283
-0.08648405258566472
0.006932713594172989
-0.01845008255087884
0.06544272359288646
-0.105663464977652
0.05554400502229565
0.028297430846642904
0.03670403864477619
-0.12639900731860557
0.018164215174552262
-0.01934276881863851
-0.035999024135823066
-0.07203252833897549
-0.010354040431951159
-0.04802144230167403
0.015519661481326406
-0.021597592083645364
0.09461553353834218
0.036647873270164
0.08863618359685635
-0.005110965203918912
0.010514622628475145
0.00192053034412676
-0.10027649281796379
-0.00861867257564865
-0.028560891427734297
-0.02063380318214117
0.018533521957242834
0.09113491406024421
0.13172480785198745
0.01281489531344659
-0.08143353864448022
-0.10996600526854038
0.028606681885584156
-0.03402943467824993
0.046045904233146175
-0.03263175775856205
0.036814682234105195
0.05902588362705369
-0.001620999627122153
0.03550742224832656
0.045135744769342505
-0.03071496841339638
0.02573847606755625
0.06227633968413193
0.017451213543339172
-0.011940710655300127
-0.12264277937580358
-0.020709100449055357
-0.026741029130410973
-0.13451334519087818
-0.026360705952670507
0.10703212814683019
-0.02609171746256563
0.07750851206346028
0.0024616900787451396
-0.030767766530767484
0.036121455124279354
-0.06389706906554903
0.07326083344394073
0.005315081962576903
-0.05577157501368451
-0.09671005995880126
-0.06509992488508488
-0.009040808704519726
0.025287995664323888
0.0661521982361199
-0.1031564079888737
0.037395836050086
0.06912553053559937
0.021189454784034154
0.053148894160847004
0.05461281915607087
-0.07391192811135544
-0.05759342502768793
0.0133890193720914
-0.0019020147221624829
-0.0636316891796545
-0.039009758980734305
0.07639999366631434
-0.019194334997913332
-0.050949006685803155
0.045150015064419326
0.024969436060291984
0.007987462266391394
0.01739061225297013
0.05287944342222933
-0.04137342226504809
0.0617320920217908
0.055755596356076076
0.029668162993519626
-0.11404494467396567
0.039401695159675294
0.02092761547977371
-0.00012881723523753324
-0.037297777821041406
-0.02181698767010349
0.06544432421354747
0.00337810856296396
0.1212149316307074
0.01147252717338169
-0.035441854322481835
-0.010824687762586237
-0.039901635234063246
0.020380761941072356
-0.0393402094968107
-0.06036364930466098
-0.0393532296289952
-0.026281105957315948
-0.023263578087870825
-0.008844327007554834
-0.027294050537088374
0.011339996215871046
-0.0007278449654616857
-0.03163028004283939
-0.06641974904628323
-0.04417127957957041
0.03876742544458606
-0.1084866039982223
0.005687416018099414
-0.020036699590830202
-0.052457441011396926
0.04567661480194909
-0.03574332102450945
0.04109815095584026
0.0337202970860538
0.05818111921438767
0.00103927823813488
-0.0004427484724213917
0.07702290455932365
0.11209124259065933
0.014723325949092717
0.022751274912728662
-0.016785082129373623
0.021421855659774353
-0.07945452463644648
0.04065900422156698
0.04691919982610823
0.0030127478814363715
0.030887911295544492
0.04127083956722401
0.010453890848344435
-0.015477289780129438
-0.021118772430989752
0.05738577858183783
0.0221324448974431
-0.021384616210761185
0.04491850876143355
0.08872939137724434
0.015609878970756505
-0.026156482530931675
-0.03833013071135676
0.03470353061883993
0.011117630482395705
-0.028803662988051704
-0.047119780979030856
-0.03479435168878294
-0.03314029256537387
0.01865761469781702
-0.06707995103004367
0.030616794577521568
0.0027595670426119653
-0.02804322139625197
0.011715230456267666
0.026030066101355886
-0.09286867171993338
0.09210938862009595
0.5667754190128095
1.0096170466324579
0.4913470133621266
-0.022116473708932133
0.033023366956995474
-0.05543284243923551
0.061636266517562405
-0.02044690313164257
0.012745554674745092
0.00929966426178813
0.06047103536520652
-0.0671260150849106
0.03580113175589183
0.026724660263996548
0.1831344873562781
-0.05677698638102572
-0.0763440019551966
-0.04195029030721065
-0.08141814302738923
0.023691154119769416
-0.0010254211970169575
0.04540750550471064
-0.01728752691584019
0.054177636463846914
-0.03798511722948951
0.014140809940365671
-0.09135276070148869
-0.04426252740811876
0.060142160032637886
0.07440043420874454
-0.10028586177259334
-0.0060523962816558495
-0.005558959487647109
0.05825093322355186
-0.12401536908857702
0.06047773834731638
-0.00567456949303035
-0.03460980786211202
-0.07640770276900244
-0.03187347028093095
-0.032355524514930824
-0.05401722266754288
0.008231632518986981
-0.0031613447073509148
0.05161461394323713
-0.005604866073976862
-0.0198953732455406
0.09920060330483887
-0.0141701949037165
0.013313299876800189
-0.03778912361633088
-0.04493195793983407
0.022444683411302166
-0.04116844770898892
0.028299793381512863
0.04498883535915371
0.017804240245263888
0.06716907167894577
-0.09575013665914549
0.02277970271734034
-0.004886836527657507
-0.002351885660796615
0.013388871400648006
-0.004736063821924842
0.01921242014203239
0.0018188067300237013
0.04980343327692274
-0.011428183105818869
0.00024913882673029006
0.03923995968260663
0.06354232088333124
0.0770690379031027
-0.012978854191935755
0.05322549915389768
0.0624698101880761
-0.0009461011653137262
0.015027341081842803
-0.06344144293983836
0.09180073625101236
-0.08318923521125637
0.04182317226368848
-0.027655177405964085
-0.021180442782029938
0.04023233511378558
0.03663076079666809
-0.039277496761857496
-0.004003832470803603
-0.004865079614079143
-0.029513415693281538
0.05457310642694341
0.022535178636823597
0.09989409646297989
-0.06947374844982904
-0.026795232106290364
0.03266586316593637
-0.03255391564401617
-0.00027341808691199067
-0.024776316474955477
0.01889070859330344
-0.0054386840303154126
-0.023524007347192497
0.04178221504035787
-0.04713259059905511
0.09696074565996349
-0.036009391719843534
-0.01159876786830566
0.11417285601769026
-0.02817121092625052
-0.0001442333555787831
0.080587832044507
0.029535689201864553
0.005841242646903368
-0.07070436785892974
0.006478968516115612
-0.021795180650894076
-0.05567622825241575
0.05566364931579222
0.03971391644220387
-0.012635338516787784
-0.036403371623348744
0.01677327846059407
-0.04102573882722046
0.08165162790670064
-0.047414620553097954
0.04332405995982811
0.01622717855543727
0.023056331817939507
-0.015886677576195784
0.09822174251148362
0.08341691237988576
0.05325892441677558
0.08120854024715661
0.01320963809089789
-0.04089454402904283
-0.08089742686459495
-0.010072886216358193
0.020744486628927108
-0.06130505303968479
0.01410549897410255
0.02862023735035244
-0.030691784659340526
0.0270479125040437
-0.05010839781003798
0.020897824834457804
-0.015515716534759286
-0.09542002761630221
0.028547322074410183
0.06475606642951591
-0.051655250749276516
0.048284708589617774
-0.0430762319743562
-0.01402110475049703
0.03870951996211769
-0.07517573472337911
0.0748191356252777
-0.04382421803417211
0.019610762316151994
0.029027627460743832
-0.06818649662589579
-0.03646294231162034
-0.06814835488512427
-0.03648018573675129
0.07694746188208866
-0.012682878839986684
0.04742820964953182
-0.14135174374210757
0.011670345864048925
-0.011504263798847912
0.010842483951129137
-0.006359618722791453
0.017609027341153626
0.012413221979092729
-0.027275662901906417
0.007096784923314505
0.010568782937349877
0.0035449071819280173
0.08960878660884146
0.00660473144691639
-0.014979899433426012
0.029041996851018267
0.07313477555392253
0.057726529158081685
-0.035441001993069036
-0.018855391637588446
0.07229976863818834
-0.04900610078552611
0.04772806035365806
-0.000805234057303075
0.006034011138562988
0.002813824753838738
-0.0181664976566247
-0.017304783426220223
0.0033941257368365224
0.05328218861144758
0.008225232571635278
-0.0708098214878378
0.02981409654468626
0.09782588077263078
-0.02251136478091169
-0.05208420324450284
0.011963069585748597
-0.09162236662855616
0.0004047668024164716
0.026772307502970445
0.03716679691542185
0.06057499189104951
0.024930101777941804
0.04585823552363646
0.140045460392891
0.45805369460288503
1.0063595098391072
0.5126526997146365
0.04356347846197729
-0.0460427406229051
0.09516279107279274
-0.01469298619422399
0.058379068263645
0.011930890104301428
0.10201578208187789
0.060681228045717565
-0.025866264471191253
0.05193407848626663
0.04496855214979641
0.01806150912431981
-0.08933169125999858
0.013647222083555555
0.016741055757610045
-0.09447643243654334
-0.0015634122059489872
-0.11856276092548089
0.06435837908868497
0.03124789587154836
0.07559498874737694
0.11694035679733844
-0.003004971123558544
0.021905599608492407
0.028436566807508917
-0.022497735583014232
-0.04667057617174406
-0.017030969610921997
0.004061909038593856
0.002339605240326462
-0.09650714251524052
-0.025272480015605326
-0.018776751932360877
0.09427503029147406
0.11826810537942974
-0.02511672697432184
-0.046609806882239806
-0.03266042944392533
-0.09545233148116833
0.03309995973397066
-0.043914116671293
0.09143261531317853
-0.029815560179310082
-0.001556711351117927
0.053806607278235156
-0.001392230471882294
0.0497822893555059
-0.01777330817815332
0.01292075075171777
-0.011200393830825878
-0.012417072890870922
0.020028775051258055
0.009742001329252754
0.032405310406878544
-0.053180038498799154
0.1281537224313037
0.04963612283008339
-0.06033572600106071
0.011660149028347725
-0.03527567915021033
0.015340400619293518
-0.039382229119894724
0.004674991919427209
-0.028008013981735542
-0.03301156099817676
0.03037589440195014
-0.11186837878326283
0.033919129108530024
0.010644300711765843
0.08533236758667866
0.08658567189652769
0.1375558724120046
-0.013980511094940857
0.005297066722261086
0.051887374890663376
0.005223785183755299
-0.0014360112938653865
-0.024751207327817583
0.024575224459984526
-0.036403995205795014
-0.08464249359079687
-0.09410736047921131
-0.044147916660446
-0.06031553674407669
-0.0010080379819680386
0.005271485071689802
-0.07293833439313772
-0.024748133253784537
-0.005906781149051147
0.10046356453937891
-0.029426641876217685
-0.05634783307308672
-0.00042498498067951177
-0.00405829344344305
-0.001572091955287049
0.05566081488133803
0.10911201443326449
-0.03368563704197131
0.03351676772344218
0.00781387380600997
-0.025591162257548136
-0.01624418924339036
-0.030074812789297974
-0.06016063216441547
-0.009284659691461685
0.04545707103879021
0.0008507129278802034
-0.05237757306846383
0.024935122114169102
-0.023680148394756333
-0.05920822321587721
-0.025202853999878535
0.018861513244551185
-0.08389936552432464
0.0236122578455334
0.06968908516197565
0.010667277403849757
-0.03558103809284147
0.017064225117207347
0.008205250056248442
0.006396586531817425
0.02195848219676423
0.0711987508417769
0.009298254749994388
0.005210344445527624
0.07897166594341769
0.01454592065522492
-0.0852199235537534
-0.022571259228803438
0.013994310600827724
0.017876189945999012
-0.03117638723499211
0.05480901943238095
-0.027199291452991242
0.04913815020025303
-0.06833132068407274
0.0731919708539878
0.07870429805699687
-0.0409506850008945
0.00742699434246054
-0.02717172568657182
-0.04420541644169685
0.12598612822683697
-0.05263905866974583
0.05220328061997479
0.026621823802249502
-0.008017886293106007
0.018151787064635386
-0.030511946853737718
-0.0992683494480911
-0.003737949836951646
-0.030254114080069144
-0.024813919522608988
0.038005580337408695
0.0969166697112366
0.0046160442521359585
-0.046684095285504254
-0.05683324390097541
-0.030282160443303355
-0.0217708896971014
0.07109341952951856
0.04002887358410061
0.011856412285028295
-0.0006757763290153158
0.02045968008519099
0.009289308077393801
-0.04196072565726319
-0.030873511998430716
0.05343321308400983
0.009688660434383798
0.011953444928864458
0.03589915524256173
0.002962445118781405
0.03826392773212134
0.04696874767894051
0.008131696091378307
-0.07850197211599474
-0.053886542299757006
0.025791158027751324
0.030083579887520473
0.056778855521175634
0.0563779912556146
-0.0447265735517802
-0.05242856112113782
0.050114940691995874
0.06281861443742273
-0.09111152229376056
0.02649421225391222
0.022633088084664504
-0.023715066690424124
-0.03773947831944637
-0.028554134637907482
-0.028366370677310244
-0.04366721640691457
-0.03239949907417929
-0.006855952102657101
-0.007597681939909862
0.049776486714455975
-0.08593160443945659
-0.0038885672803160957
0.13441780201381642
0.04443840867705989
-0.04145110268384339
0.06219424434901012
0.039414492430864784
0.06822830009653606
-0.06590453154412315
0.061809509819639674
-0.02840540174567815
0.19419012662216611
0.4446528383837517
0.9632560734097523
0.543435539780663
0.15685264494525417
-0.041275165021466026
0.013696560142972908
-0.026841295799982567
-0.02069085419085912
0.04734791498373408
-0.007949491171045122
-0.00841869465597965
-0.06543523566326066
-0.01020300654335058
0.07474860420953075
-0.013395945286917427
-0.09035857792373202
-0.037695730008770814
-0.022548937259163758
0.045539124751084244
0.08314192691614672
-0.10358771318692589
0.013905480901851886
0.01657505070724048
-0.025470124705776306
0.02620729831694657
0.03161294497502875
-0.008942300747570317
0.07006576503798714
-0.0033249417216623905
-0.00288420144353348
0.028306004436916905
0.05851770955807997
-2.3779099413807848e-05
0.04630362794262468
0.05467446717334656
0.017627204101849023
-0.03705990467145455
-0.022210285784421302
-0.0405767517942206
-0.01827686216687026
0.013345511407613524
0.02264143006635924
-0.035051465263392145
0.049196001114129154
-0.03439838562944666
0.08350898111578098
0.011089741332796606
-0.016562900153028946
0.01775406626417248
0.016501701201525845
0.013087684884903729
0.08212567812065334
-0.06056614703311043
0.11127407265403284
0.012657355970558233
0.018919421479199994
0.009624439846914669
-0.12405189883741469
-0.054826629636624935
-0.035812536810069816
0.08288223398529114
0.04695124778447219
0.039329309732669605
-0.09717851561747314
0.007110423321724366
0.09943533972640081
0.0020663728988886956
0.017513719374990418
-0.052328642853286526
0.019449008668309384
0.03810338729515134
0.0043726107570933705
-0.007329356486605153
-0.07775882455734878
-0.11561519861311453
0.025634893203601967
0.0031763293955396447
-0.04079121207695802
0.12450215086290038
-0.011438056136552587
-0.05495271002329664
-0.008455589689729722
0.011082731680288262
-0.06747503614546334
-0.011898656809988133
-0.03985420281020824
-0.04373221810817132
-0.05746592821102099
-0.01098696024586549
-0.03378756328376597
-0.03633285917172706
-0.029695462104811256
-0.02332156791101311
0.019959847277327143
0.0004297610321151025
0.08525170925047952
-0.02037762833116246
-0.00044073930067079555
0.024246686847156557
-0.012578410982079952
0.02164897431948262
-0.07230167680450272
-0.051792532559463735
0.009117739238751735
-0.013973588948839108
0.10490356049172687
0.09018527449530962
0.05126925027346976
-0.05888430711899935
0.03607805010300216
-0.07730363323533243
-0.026613680663879126
0.0705848874803423
0.05180273771686783
-0.07014970209824137
-0.08090565948881578
-0.0008718938222362402
0.06549043222366946
0.13794982393050031
0.03515414748987727
0.08711360623490928
0.06316522323463528
-0.07331432397059302
-0.03993538073969502
0.014486230479278198
-0.05504024270277999
-0.05092579711003062
0.10487312630987955
0.025247171906510848
0.003744458676450762
-0.006697384667818967
-0.0009808228452400296
0.0834862892151767
-0.03642931335073832
-0.09865910000449683
0.01725378763204154
0.038090074135842256
-0.06110265238417423
0.009634335790071787
0.01986735180961208
0.045638462426908694
-0.021752006793898677
0.012077884328896268
-0.07050250918313052
-0.1434455578615135
0.05316724910828229
0.030871486285749372
0.0024310782979985214
-0.07008212835395726
0.0008404368611474879
-0.0415474124319787
0.04790803540965827
-0.007427384072428204
-0.013494765843774896
0.11020084499945793
0.03987268577940671
0.04274016819348828
-0.014721438098487387
0.03594203396467494
-0.034134892183147726
0.03400982701795185
0.05286528531510343
0.031085649384370213
0.017587910445737636
-0.04099393934633272
0.05806540003929689
-0.09294491106876994
-0.028069684732179676
0.04865958582887528
0.00761547339592615
0.09328422447099241
0.022948137967199005
0.04634690842040664
-0.08417233290240633
-0.0156780138201606
0.023004789669368968
0.025466664399908464
-0.031022873151300874
0.05802108669821966
-0.08334754100951058
0.03237560378905778
0.0026462640232645367
-0.031139654336987555
0.005343211064390532
-0.058001556589361764
-0.010003766380519858
-0.06145368677107006
0.07412259764399289
0.02983641093405967
0.06201122143284084
-0.018671865600779724
-0.020569169049393387
-0.012323624461289723
-0.016048146450764952
0.0905589748236475
-0.048280604298962235
-0.06999490072379282
-0.01325067879860625
-0.04970603545232985
0.00508063132795152
-0.055323721604890824
0.03959251314219012
0.009055098795211885
0.03963090625818758
0.5342489029704276
0.9662843831230794
0.48853899646064497
0.06418383562240494
-0.03110036261703993
-0.01301470413282032
0.014632274137966332
-0.10402154373137568
-0.056524301806159694
-0.06660483471267423
0.011778111673487891
-0.07462380421296576
-0.08897219478860376
0.05386747926612562
0.021414704762912483
-0.03367849043049841
0.015162528474094501
-0.07986604566095672
0.0948919819996929
-0.033929190196272406
-0.1409363136991628
0.009370675838234487
-0.026275266223204127
0.018502989798160067
0.13863949038521836
0.015969120907505
0.03765133355378353
0.09629911601362741
-0.03977982877995914
-0.004316272223835284
-0.0015827802955785137
0.026624474912597007
0.06265957290724043
0.0658936506664188
-0.01828489317686897
-0.08521802339063332
-0.045814064609913635
0.07590874086183792
-0.0540424596641552
0.06041033994180474
0.04140576639654607
-0.13806347670806546
0.012204504520416172
0.057131701408635154
-0.045902793891211886
0.014974725443007278
-0.02378256195588419
-0.03953704901318933
-0.013205273642376135
-0.03937792235785473
0.0012391877523572352
0.02182025627543522
-0.0018783555398524656
-0.023099354858918942
-0.044254697544469784
-0.04770195241289505
0.08851348361703404
0.0224053460655906
0.02350959589080421
-0.00047991469379220046
-0.014833963955736093
-0.07406720301158194
-0.0203579247752375
-0.014497962092794218
-0.033123335479907486
0.03007035740122548
-0.07644511850595312
0.035281889109194685
0.16329053867093876
0.07152274060402695
-0.041700928180673974
-0.08641285181871211
0.014245079605722738
0.015437479380483732
0.008901694192780895
0.09020933874966687
0.0035980688700195463
0.021963457833285637
-0.06973430915894022
-0.10252541777202251
0.0708047472600162
-0.03247066822400439
0.007646136714678037
-0.08823543134218537
0.042645981780567645
-0.03484233446182526
0.1076143189843061
-0.08382158563434651
-0.04758130883457562
-0.05145136175707582
0.013693239377509735
-0.033536563957107926
0.029554775472852873
-0.04698557850969254
0.018906218629046987
0.009646383025727456
-1.9738441989508222e-05
-0.05180397656405527
-0.008517068539004783
-0.028772636825128834
-0.06817285856569308
-0.06342245405201803
0.01044982375984692
-0.030285308138127204
0.014904022924692143
-0.01282069356922496
0.0795379156415576
0.029019510118569833
-0.016123755925436908
0.07022112042979108
-0.036709108375813745
0.014026813916139108
0.017500280503494055
-0.023676645467146804
-0.06770019778733481
0.024091638170342846
-0.017673077088806246
0.020081333793732236
0.035751725822197704
0.08618549635881698
-0.0970989630269372
-0.012928346186154172
-0.02049448513800374
-0.00524782000013987
-0.018613591980788942
-0.007019067440269236
0.07602879011222777
0.012153577030609108
0.0253142423817942
-0.030650262841092298
-0.042413591196985755
0.01934183053986492
0.015035806146164472
-0.012704295796112638
0.009454756712548855
-0.03174122432885359
0.06970459033728044
-0.031017431550225877
-0.07015419640381326
0.07972066385602089
-0.08031874941335046
0.028667884409776828
0.03581746527556633
0.059606827217954905
-0.021629825726847223
-0.0043418624937338396
-0.07508392672324193
-0.016230038874968936
-0.01774161368134543
-0.002395601797964315
-0.08275802998414994
-0.010913726155104362
-0.05771710239312383
0.05202722645577201
8.785471932117206e-05
0.029408683828922446
0.02211402533806471
0.048945558133327294
0.028613599706509514
0.002996562327249033
0.01533045023864106
-0.07798593801337717
0.004303978219622587
0.07532192985070217
0.020969863724990958
0.06177576191474141
0.0349914862474018
-0.09360327591709505
-0.026745749256751012
-0.014964684842469511
-0.007890817156769838
0.01831787338934885
-0.04539011898391918
-0.002829741054139512
-0.05471556697467095
-0.003383406940106356
-0.12458846591599762
-0.03531882670090058
0.003131543591900507
-0.0272164076746719
-0.05239887456847771
0.03148429135343397
0.050368962693264845
0.015602689189476469
0.09718237499463248
-0.007608406457736571
0.05755771478759643
0.04178834586463635
-0.020554009158565822
0.07390539859512364
0.08051698869358173
0.004834020910488554
-0.04774011134147183
-0.031520033891776704
0.004707988287096661
-0.029237034671722614
0.06700758454508647
0.003455650714847441
0.05757200767620453
0.054141196163255606
0.09072403269587641
-0.04214766352900143
0.07955176864925267
-0.05566877998103749
-0.040952768342895844
-0.057870612122809154
0.032291077704439
-0.0037946837873845114
0.05142226167967884
0.04480741222674101
0.005346262260720338
0.03778254276514248
0.14231908719088157
0.5151470957768098
1.050865740294495
0.5050615708451527
0.08799321701256779
0.006326623575354406
-0.05148926830078307
0.06116631408238701
-0.03217475287641168
0.03373483995521213
0.06826058913902254
0.05614809036980008
-0.06061093957804414
0.04563899981042105
0.057158335100894936
0.0001236583652838047
-0.023628474697503545
0.043535546065612996
-0.02357294088974762
0.002498801178597222
-0.04567354484082914
-0.03221977793628673
0.007091848122132736
-0.07216577594663288
-0.048097940682408025
-0.10221345020495948
0.020768737496012178
-0.04280291081502733
-0.0017130457362555267
0.07143822140291815
-0.07361432696210307
0.11418172017075112
-0.02121281749251572
0.047316380614442384
-0.14104699155685302
0.01999441816699403
-0.12082746311861592
0.05850081238826837
-0.06414386095572779
0.014020889117512461
-0.0010318842574830345
0.0764540226305414
0.013489988592709834
-0.050691284853272435
-0.08239288143071762
0.03488341390416957
0.009002735850499575
0.03265841342930068
-0.039790902190531434
-0.0550765545241759
-0.02522354638384909
0.01612456092265709
-0.008626702727392794
0.04589897125245014
-0.028545583230923856
0.02491231156756255
-0.08892747310141597
-0.010852288167147811
0.009525827841409129
-0.0749902893222808
-0.10432765918631265
0.08991341769851009
0.0030553389147507434
0.03943274632481747
-0.009718960968681543
0.01327332347586628
0.08833392588013993
-0.047671987103490784
0.017287343897676367
-0.03920686924435608
0.0006773135029401425
0.0033373870807502544
0.03049035876266498
0.05858830509874529
0.1595252184599348
0.00865382492067546
0.1381118545087233
-0.10884945153113404
-0.02314539753429548
-0.015135081803810702
0.037720193066641816
-0.0315302360594907
0.07689750815411005
-0.037493581070033526
0.06953387154533537
0.038704018933379186
-0.021017149674121074
-0.0033126701181909815
-0.005334395124074274
0.04967053132212083
0.024666908430122446
-0.0468438084359327
-0.10091184578624464
0.0504300633007767
0.04630777927711584
-0.00943139901777731
-0.02547749095750931
-0.03561897927645813
0.003862706710566053
0.03861205851352984
0.02198492947635288
-0.045504589445317004
0.0842688016975334
-0.03399432903351906
0.059738772226537534
-0.07152340139790861
0.017933558789630925
0.03601298885323423
-0.1050474573121256
-0.024538485525645425
-0.04006056743060511
0.03743938389355759
0.03833411820582647
-0.0068793236741191924
0.015652241526478188
0.10045230548909086
-0.055045151901006506
-0.0035330062771253058
0.01396836068997951
-0.013850363813370745
0.011977809254372793
0.04412371180683784
-0.03310886687256654
0.0058494117084061
-0.009385509828148099
-0.0020700822174947427
-0.014082457462507199
0.037046319640195266
0.03618343321127433
0.0009510628722110833
-0.012279207356639848
-0.012862421583987836
0.014336314151399904
0.018960138457506288
0.03032436310823335
0.0868094341574945
0.011698753041567018
-0.005244797205338259
-0.06611919150791007
0.0011578541263142122
-0.01893614373625666
-0.05121458672280904
0.07411009475334204
0.005533554375381444
0.017758667452207968
0.01709793123257477
0.04213179192567931
-0.10735905903431675
-0.00045859361880038006
-0.029373297242525444
-0.053000381646976694
0.0156381040562489
-0.05075900075728355
-0.04677384688692067
-0.030194766321544126
0.03993702055320703
-0.02053694068805056
-0.027386838309446344
-0.009068521136577851
0.04961580114340468
-0.0689615064179796
-0.007524427949159263
0.020620877761627604
0.04189160245298846
0.11413287909319943
-0.009296865157885142
-0.040920249158472644
-0.08045010030518268
-0.053034776995531496
0.01903377739028667
-0.03196614105760879
-0.06569452269703117
0.024907098073823943
0.03897670275004919
-0.029120620792247167
-0.11134811367820562
-0.0793079334386534
0.08363710855346965
-0.026245458810367696
-0.13402456141310823
-0.06764941327923829
-0.003079176827748624
-0.038203688387020235
0.02612955772194732
-0.09990522047470363
-0.021070466126207048
0.013779466602415686
-0.08304664718545934
-0.03377788162192011
-0.04271970594772596
-0.05149413085885991
0.007584145935023018
0.06868649733560149
0.015632836958540036
-0.029905656002598348
0.10148348803195413
-0.06040909299535137
-0.05885485980471181
-0.05703243006221773
-0.026137013323501337
0.051957658193938466
0.0867085878140045
0.08362182050760236
-0.007776677094097466
0.009048110981890387
0.11994895029653592
-0.020615478244713974
0.05120167290941061
0.03710818496286274
0.009843612598249443
0.0020407831520983695
0.0039358676349750986
0.027492662064819057
0.07835359171437573
0.05756035763134849
0.49968113233034606
1.0754449174849898
0.457833427421142
-0.03295183173238467
-0.0518304233945302
-0.0023686761708422532
-0.03590013798578962
0.014119127780537477
-0.0038281442899151304
0.020579106078057508
-0.0033059031805509776
-0.0018314495927045185
-0.04930632713430655
0.041604198243194
0.023068837978669984
0.05843766235621887
-0.014249864755384076
-0.009693584047317787
-0.05935223855165881
0.0311090646524563
0.0383675583750242
-0.00950241542157941
-0.04675598042987614
-0.0017603426013362254
-0.03707316045848475
0.004681258753287165
0.06951570345741587
0.1008751478751734
-0.08823846794351864
0.05294068556100082
-0.06067663655660463
-0.03386336245252795
0.06811377172173155
0.022749127012563458
-0.011435330897031292
-0.028060451142845028
-0.03554135503985353
0.09399321746466906
-0.007856580819849792
0.04217045173327809
-0.1473072078010455
-0.002646547068601476
0.016471440212721858
0.025066150111125035
0.041419280015661634
-0.09164833514785536
-0.031970807870039114
0.00923984590713954
-0.06367271693734812
0.0017016223916618994
-0.016099761040852947
0.05826713499733686
0.07103269354134092
0.0283541680958737
0.06166582733390161
-0.02405705020851734
0.05123914863138771
0.03182854963259659
0.07533243993671578
0.05390627054249275
-0.10379639998775073
0.042953945158859023
0.05709472115219234
0.0016306651745893143
-0.03681799117931195
-0.03039337348181706
-0.06085034980398703
0.04783384857301768
0.048431068575742885
0.024355798882835157
0.05473424124539902
0.05482270754544019
-0.049078915958631196
-0.021224639379697107
0.06913820628503412
-0.03225224030273099
-0.00036065269753518384
0.06991555890254975
0.01880518823327709
0.04203554925639344
0.04458614034938305
-0.01257147417063591
0.02141546561201832
-0.03303389591162911
-0.03628988373966679
-0.007202915190256596
-0.025168625190482033
0.024638287882888046
-0.013886560698914112
-0.04411528724330299
0.09704264315794961
0.014113244168342344
0.07574702215320461
-0.010711787011285195
-0.03757638700682676
-0.04389962143029422
0.012660993591728606
-0.021185196097867124
0.02622354807475238
-0.031982983590031266
0.008115738971722445
-0.04538488350361239
0.0037064809557395095
0.05023102883080147
0.05568856611535489
0.016098892683516147
-0.04994517959851352
-0.03802436863020785
-0.06128709109632735
-0.026369751323526838
-0.0077927403118984735
-0.03649212555565419
0.01386368277886199
-0.033099488538691324
0.022170083543641916
0.020735846779884107
0.0024771224372655935
0.05391677893473867
0.009512476931717426
-0.013473173971241363
0.0062230932168268124
0.0620535114920519
-0.026319780025049973
-0.11011526943195103
0.10635490326648026
0.016683637936319957
-0.039620212167296734
0.0064688938168246946
-0.01714372798957453
-0.07586151216567061
0.00858947538503994
-0.03462976420355734
-0.025659493729479767
-0.011593344593142768
-0.027059815647223158
0.019450349213167815
-0.019494961033457155
0.07653631918954991
-0.07126219733131024
0.018618638531872077
-0.06604971612391795
0.012182827105633315
0.0027448526612997228
-0.006561225968343697
0.022411375384114442
-0.09340334047262999
0.07578215869976394
0.006003970967804274
0.01973512113451026
-0.03151537701692494
0.052152257830719785
0.05787908711246884
-0.05900102406570872
0.03893345303934872
-0.059128331649207944
0.05851769075076999
-0.019728871040798818
-0.04856090503437382
-0.020504410666418435
0.06891219036082717
0.04123740511533133
0.0610660976654348
-0.06894119071044565
0.03714600455639677
-0.019011135144684745
-0.010428775724631283
0.07198468568853954
0.0011332741973121578
0.047667857618748796
-0.045011640994433944
0.07493624381846713
-0.02976728272077736
-0.005726892271125407
0.029895876827651158
0.013368008302777727
-0.07156114598398007
0.0220499934198015
-0.10808472607476541
0.017941328205509678
0.014635616803383959
0.05618694682677812
-0.011908443598501704
0.04206648589482694
-0.05327453585500718
0.06428132022565357
0.019545182237050415
-0.07903615362309768
0.075541276352532
-0.0047578353156687535
-0.002635319999385825
0.01758680305322103
-0.05248292709461592
0.08009083740101502
-0.05348846088743142
0.011591735868349945
-0.0038800169136521917
0.058594116344599635
-0.0683714693845533
-0.04167405990922335
0.07325193648073083
-0.047478702676873076
0.02328198627169076
-0.016433166814367944
0.004003077660553021
0.04988077533463237
0.16499455567905724
0.5400190208784055
1.0170765596039955
0.4867983922968535
0.10991467988937458
0.03465361382137782
-0.04574141267582019
-0.04349006521474574
0.037342255963648374
-0.016993689489230288
-0.02378676064133122
-0.08414639612875394
-0.0012055468592374252
0.0363283593809575
0.05477405868927243
0.08067333426776296
0.017184578120959252
0.06608659391314516
-0.009667035609535543
-0.08663238374757821
-0.012959769289017998
-0.015067029589275423
0.012466035003571976
-0.005715554723165328
-0.0037455741607377215
0.04334841771983841
-0.02406254626858639
-0.060075732075426484
0.02856399980130151
-0.02710257831626113
-0.004565068482892881
0.040723772023146504
0.05284808881290938
0.06497814354411637
-0.020851908813237854
0.06282558525238117
0.04921743172441266
0.1179964845369374
-0.03705861117570463
-0.01611679708867805
-0.029937448691891605
0.011132252443125068
-0.008337041663549767
0.05374635361563887
-0.023031484374981467
-0.005801746910570603
-0.07947734899448172
0.13602402307454117
-0.039515938914418784
0.03126594311815807
-0.007657790063873265
-0.01947958438729641
-0.034779421346537984
0.010797230719113694
0.005661026706565399
0.06961137904766525
0.06088425538993919
-0.0371846562710976
-0.033377253054978885
-0.011108427053631097
0.02794733491233646
-0.07486906607977477
0.011358919354121665
0.003262255656091494
-0.007325420002009847
0.11716088800717524
-0.06467784261769254
-0.046070355610962135
-0.03370251704716572
-0.021999652533135874
-0.015850202461606077
0.08749419402043788
0.0749256648050112
-0.0287170217150218
0.01896659454557796
-0.05569310312106938
-0.05808996824004058
-0.07362386308712826
0.0031165717164233827
-0.024125767037785913
0.015907982512397334
-0.016801561160832493
0.016858207322078142
-0.0009082640737343367
0.034466697548631825
0.0210615484723732
-0.06305289036461768
-0.024084046223748615
-0.062452385299531746
0.04123655067531651
-0.06322594759155233
0.07578254304134485
0.0006796979651293522
0.006488722889459362
0.023608582644901406
0.05380916156295021
0.006636963958384823
0.046916578457520904
0.025002787253542727
0.0004951648179281429
0.06537803888094859
-0.023664879215592818
0.06848366823135722
-0.061332610905455845
0.07219417941111275
0.008180006777405895
0.05570706350035483
0.023455861519835166
-0.0014515312782501354
0.0122015381487686
0.02524210440956855
-0.08148937777508247
0.040305226919585664
-0.04176249501163816
-0.03225990920257181
-0.07407621465079686
-0.038615238965195364
-0.061309814211219754
-0.04316692785292934
-0.036483096077531176
0.015069119474403023
-0.02257316850837641
0.11114055089322708
0.006496908710580271
-0.05235391608761084
-0.009611399890567003
0.022854271912837305
-0.006750426646174899
-0.039008947755783056
-0.17911361027857395
0.016245717645284884
-0.020488313195969464
-0.028121920790168127
0.005718273027896972
0.02277156068974915
-0.039708071756197276
0.008388673209126308
-0.09773657568865189
-0.010128033006873635
0.05250715072036906
-0.04227941472459225
-0.0937513917716174
0.02899438745504064
-0.03571625626972986
0.022973756331692803
-0.050042269087016415
0.0961465717294544
0.0026238568949210144
-0.059595945727576385
0.01796680154321259
-0.04594555446431026
0.01129690589500856
0.012630541876755006
0.04584491761744888
0.07005652249474194
-0.04095403085623173
0.025163984804833207
0.04038556505730167
0.008719667314708149
0.005348834169426604
0.02573513766751578
-0.008471972158775222
-0.07599489271212972
-0.06096539170410045
0.050922011270674694
0.00245048325808693
-0.05554418804750986
0.046146220162633464
0.007996230442609047
-0.12336641938041784
0.04008475518739553
-0.06807463754361077
0.0928013698760001
-0.09656950787783956
-0.009004902424207662
-0.05631720640309859
-0.04311796880866585
-0.05991361405535189
0.08245574355680559
-0.016523711588594264
-0.04243760364208307
-0.05652790764900866
0.1027885463525393
-0.044919275351162025
0.02256474013908335
0.041444098981091616
0.015084445591247962
-0.001641775943063994
-0.0029366813293507823
0.015680032867935133
0.08485958427796987
0.02046582547051288
-0.03628435718941287
-0.06671306275842684
0.04597981812632482
-0.010839182581928682
0.14351142188921928
0.5247551597097233
1.0896992912593562
0.4663317078323851
0.06752235178678474
0.03330147480102597
0.0002911051124534481
0.05730671299690807
-0.018168955468146335
-0.03659845984512939
0.03399306403000046
-0.048894538817876455
-0.03127308361184159
-0.06772320975336305
-0.0011485468335834458
-0.03239094078504507
-0.03136550506017981
-0.1471076622207625
-0.10955197675033919
0.011565305550580524
0.05938073650439625
-0.07918190508030878
0.04494622306888753
-0.045346819436181095
0.048891570115910714
-0.015563257166948792
0.020164016528935097
-0.045510696673406015
0.031451826017585456
-0.05537391793758628
0.005185307845539406
0.026079421833752826
-0.04400507129726343
-0.08428159825492679
0.08111229601325076
0.0881995146071278
-0.0721169402711678
0.05792991955843227
0.04822146898588597
0.02222551270962933
0.051936928540982676
-0.02333283092219847
0.027407825628412038
0.05542123639057816
0.03515696306149698
0.018895566016171067
-0.04595688885799641
0.012567792687793811
-0.04738405664629432
-0.002274402361215027
-0.03000384893309434
-0.008241332873436284
-0.019285112964656723
0.09481903431699401
-0.02347275043442527
-0.001553353024259691
-0.06834920832017098
-0.011453618020238681
0.0016786219036494798
-0.03949414134177993
0.057507834392479834
0.026551508810990495
0.00341765752398919
-0.05154881787121967
0.023377835682797832
0.05341155801026276
0.061221426494027564
0.04663736666441954
0.0023701619042937926
0.007910637214972333
-0.014396001040670878
-0.009739519148371671
-0.04681322110449157
-0.021309471736999937
-0.025767157452099915
0.00821791540473795
0.0675906699372064
-0.07976891992776922
0.02078534965866206
0.0622105413439393
-0.014401626579578658
0.09055540416446983
0.010770920315295487
-0.04145114235639729
-0.08584067683035237
-0.06038922554889601
0.029850208286674135
-0.0432071487472753
0.0021585667791776354
-0.005518665947818102
-0.0035767216904459965
0.053682710950884255
-0.004942078362667586
-0.0028304855065396425
-0.04196357245502502
0.06416628369078768
-0.09438013947000871
-0.012648362070035196
0.055721569646671826
-0.004563040345031652
-0.02459161737119084
-0.0306388850089918
0.06554917609796478
0.03216497911131916
0.04043781484927577
-0.07653022153045391
-0.08023942817017773
-0.038686484247045294
-0.0340516406848792
-0.06544690263820473
-0.052190378805317045
-0.06160221406576149
0.01356676596085426
0.06870781223416758
0.021844807613293615
0.006965312423386296
0.013555334533967088
-0.07502057124497752
-0.03786953179126593
-0.03686171816333105
0.0320215223401748
-0.06570558193963714
-0.0643662017265111
-0.013079202644698494
-0.10444876448122505
0.03652152949042236
-0.08042418439171738
-0.046031581720514934
-0.0274325670972932
-0.05019549632752667
-0.013845741513939537
-0.08740155127719605
-0.030259765658156603
-0.03188335350298529
0.08643976081134302
0.04360114934310761
0.00673518826778011
-0.027756125072206518
0.04262611514758152
0.005283279573656749
0.013645706743807424
-0.027616606095236553
-0.027815741925892097
-0.05436003144563926
0.022189736826668038
-0.03884306016010429
-0.09275914823023455
-0.013949205446025828
-0.0047285343621527726
-0.04522525662035032
0.028223410620443035
0.010132233193166421
0.05876602500407507
0.06559493376258833
-0.054563899375664415
0.05312789245855115
-0.0002879241997218374
0.035299138598145784
0.01768785425379157
0.0912140412596492
0.015300476688282008
0.010793028092607335
0.04527200076596258
0.07306401586301678
-0.023592272816244732
0.013101321619579033
0.016024459547746932
-0.0025734843494338833
-0.1453423801413488
-0.023157268795533294
-0.0931164070270573
0.09468271766225007
0.080043168035266
-0.020782589611772567
0.010700673315330306
-0.10098202228364928
0.015067764114324554
0.03972101664818861
-0.06284421181645715
0.023688500795809128
-0.08133932141869751
-0.06734721879932767
0.0002976618143166884
0.04330942449434273
0.010914510999938329
-0.0665760047291988
-0.10527744034552272
0.03303637498987468
0.03424403847456244
-0.046899848459750454
-0.02781796376748414
-0.01606337744506069
-0.024409347561265005
-0.035248872432568336
0.02989062907642126
-0.03016272128697678
-0.07510315825516509
0.056222023382438785
0.059502447660308266
-0.03778491405617777
0.03517869376056247
0.042714743020384915
0.0587013918216055
-0.008477175514669614
-0.010945217744421046
0.007535691728069584
0.030934979094893834
-0.024612164174004823
0.025492138360081098
0.04263844079831965
0.006410555332447482
0.06693058879673454
0.003978573944277183
-0.0023933131974939116
0.028040210645916358
-0.04527521681913793
0.027670945977836536
0.03317203006879329
0.0013692474193788993
-0.013223902182732615
-0.06781044961600757
0.11543204095227719
0.409799031111182
1.0517572423483854
0.47965403664955714
0.04938128223171631
-0.017669812627803316
0.07039482637380719
0.0701470167701658
0.05751023690768971
-0.016391411291057367
0.0915097938222848
-0.0006724704438642555
0.01950164965777219
-0.033309011513899964
-0.0020427699866753728
-0.028116214083646143
0.06935934004156048
0.013098404606229817
-0.04508144391081666
0.0027269663171802035
0.04188598936939619
0.05478131454466237
-0.032791356415750844
0.014143488501357705
-0.0695310421993061
0.042703247083792945
-0.002685613203004005
-0.027255385033430064
0.07952228005631046
0.03943910379020787
-0.027932775202306855
0.054773160451645056
-0.04512408649798366
0.040304726319746076
-0.0263314055046541
0.013057951714123628
-0.05739099289067498
-0.013020992654308158
-0.08463541691879278
-0.03800408703703688
-0.08870779438560521
-0.03239313100786768
0.002543660613902906
-0.08357872094560193
0.01147158374097302
0.004023175863179039
0.0016930378249277293
0.06601323823736875
0.04971283767318818
0.04670091582163888
-0.05974458363769371
0.001802562404137267
0.0182420821962235
0.004629583560375391
-0.030165260513119352
0.07146668217307373
0.0020255746408205074
0.013137483721160543
-0.004657731652068315
-0.02711040924768726
-0.016167135759889147
-0.03395059653391835
0.01812774226648568
0.07977805717598058
0.050513983054091986
0.06873663754077526
0.06433260337676446
0.029592365450249847
-0.05924859867299114
-0.09863149865626364
0.01870440302807557
0.04538085435879258
-0.08463159607194355
0.03889689671816962
0.011141859453915097
-0.046000853162507946
-0.008126019450417703
0.014664312160085458
0.030095783816333238
-0.05741693464781894
0.052934249795072864
-0.01233263730109778
-0.04679615283246246
-0.01892238762488704
-0.013033975973328317
0.029306333521177855
-0.07238516684773749
-0.0547936424691872
0.029470692331710215
0.04717170170256239
-0.017339685842213525
0.039564411150550614
-0.011659054825005857
0.061550458199959905
0.06643816085417208
-0.0006856893467329614
-0.024301757587045905
0.02027206738249583
0.057063371133529495
-0.08914020519127912
-0.1563796865773036
-0.042776647623231384
-0.1530524731616508
-0.04827053153270384
-0.0689744633686815
-0.052193768611769345
0.004826639704028103
-0.16005985296366862
-0.002889189641102081
-0.007811350411758027
-0.02945528505926084
-0.055414956027394505
-0.022583597757481148
0.008756590665472042
0.02486259990627499
-0.015394658582165875
-0.02930462882674866
-0.04879946333691046
0.019679331825132155
0.04813668698373105
-0.050683990378375114
-0.04617209191340717
-0.0035179547752030183
-0.018318449425158295
0.01766203141464108
0.09384200863938182
-0.04796031571373345
-0.07297095180758782
-0.021863748005552866
0.012626573870796663
-0.05464975641554895
-0.03291989254993328
-0.0337953713590776
0.03674957606408114
-0.01779151360978814
0.0010916340459459673
-0.007196900623290578
0.01530167668374248
-0.00807127491749812
0.03790814192776912
0.05086792728507494
0.018402404900442287
-0.010459806170156748
0.047505934982471874
0.02034556357232789
-0.016853961949072713
0.01821734093882951
-0.09200855149949633
0.04463735666311408
-0.0583358831951927
0.041609893917968155
0.015749287683386355
-0.042824531028690466
0.05785783683203784
0.11446942855273456
-0.03630186415691536
-0.032936709717468274
-0.005015146466657766
0.09090225096170303
0.0024998402469190617
-0.01698497357878778
-0.007998701488756
-0.02147477955983225
0.04702697186963875
-0.06355985794148356
-0.0054350100778353325
0.01888653844479511
0.051780811664145145
0.050503404009219335
-0.11899270158504263
0.06579728173021342
0.007847463295029021
-0.07558283691470172
0.01129650281045656
0.00030215748406492074
0.058889582313787686
0.0010662336179011259
0.01058584262994141
-0.019631521980163904
0.04069558070331755
-0.030417288026815772
0.018192701354478237
-0.024791831968991776
0.0190730686600827
-0.0019200527735016464
-0.04049854712393247
0.012086645292800772
0.026410316078915988
-0.008705445143729808
-0.059106568144167884
0.05741291370038342
-0.07294832816267748
-0.051960459533636094
0.04582245015991724
0.025248782210166673
-0.038151487257194194
0.08168355980099373
-0.012081258342979222
0.016486320443341418
-0.01216587334218305
0.023393148052248208
0.01729622130079603
-0.017030546811398078
0.06403235239004301
0.4529013663451666
0.9816916210516511
0.4797683940838577
0.09989376626732137
0.06583505038944258
-0.033563317168829966
-0.014772120561062195
-0.006192874365628369
0.015027292266550113
0.01249112828566136
0.01141387355794119
0.06554082479614609
0.02777409758354763
-0.04096978863943128
-0.0054009363161219
0.03693345486379077
-0.0684443600079337
-0.058353141574071316
-0.00566879809778073
0.048662836413107584
-0.06265360642986326
-0.044864579774483895
0.0338874492336231
-0.04448599819542323
-0.02932102939091464
-0.0029488378881189175
-0.011659688721386466
0.012055283340698922
0.017226752190177105
0.04542054864957634
-0.044873049516895545
0.008003404352967638
0.033962207590256796
0.027620376938288768
-0.14962790641672385
-0.033417640096211516
-0.0008828822315827478
-0.02744279917926842
0.015549426547079479
0.004257643105498793
-0.07790927159268765
0.03034739036278837
-0.03194269242741704
-0.06750773053405205
-0.010999438557578737
0.041009231543426006
0.008584940813341725
-0.04886493826675947
0.047696380984853425
-0.025643297571536428
-0.02774532818287775
0.09379717652792571
0.05231259029650927
-0.021672134636013706
-0.04531586324649739
0.03748012375731458
-0.00991057198087874
0.01463940397936337
0.02079380121725224
-0.040374444802422145
-0.015209319103664838
-0.04218029616229437
-0.009484454732259354
0.017723422025485682
-0.04058741446944156
-0.010803820692793127
0.040595263492615184
0.05823749541777338
-0.09047205462781982
-0.012232727249891617
0.08386862581186168
0.020243108650980387
-0.04336892369073842
0.04895065622392375
-0.004739100339923792
-0.013754205621632504
0.07095759974529198
0.02875665285371959
0.006306425417465587
-0.09480447565871394
0.06439446119629125
0.016945969522424807
-0.023929893460204212
-0.030167735377291262
-0.013097849763584045
0.044343867387562005
0.0011332714715725312
0.002732737092337709
-0.0006084480436695476
-0.0831030359844236
0.02164042544599394
-0.013246811554302827
-0.04588177059780063
-0.03529250902981145
0.029579469497203022
-0.006471659799094923
0.018373259573497024
0.04307226780306875
0.036651828530701064
-0.0019535922373140483
-0.016648802812404984
0.044515878456636473
0.08653326244054196
0.07257988305157789
0.08220317516033272
-0.03967565133413415
-0.006178612215606965
-0.016602966754013695
0.03270248852951816
-0.01686066660062582
0.025477299236557362
0.06582998637711532
0.02319985557799541
-0.011053286067809066
-0.033759136253290675
-0.008206637875413331
-0.023260772533639246
0.09726220528765013
-0.03108864424823591
0.05134060195975561
-0.06397293216108411
0.06543060129197438
0.012776305629194249
0.00876068045473785
0.13309119547260376
0.018671840566888778
-0.0047577945574247375
0.09886216626881594
-0.0250548424268098
0.08489610703758765
-0.02104818771125152
0.11691219468001944
0.04042909659914894
-0.008003412714620234
-0.01826841558217313
0.025491393296645418
0.09278385448166378
0.11031160560774074
-0.017771573207995033
0.06415727137184841
0.014185677293473737
-0.0441051065921252
-0.034062369089709325
0.02376305759831287
0.007898159201432584
-0.04409395924784567
0.049477846275720445
0.021425454109422443
-0.04106035342397133
0.07400464451246407
0.13221985718444124
0.00972370155549002
0.0255778567113288
-0.022331683858808803
0.012728698457524916
-0.059029802140601884
0.07036065514137513
-0.10925754038027523
-0.04711413384024929
0.004915435474035113
0.035740946199034784
-0.1011851193579419
-0.0247452381000845
0.07408920277590458
0.07061108989069549
0.06562316116172046
0.016600606482992827
-0.05210482253169492
-0.030971518137785342
0.033299454151896495
-0.010694938564543217
-0.0573995183291649
-0.01646940877153329
-0.03453781315738937
0.048559906442905545
-0.040623585564221854
0.02984292092170737
-0.01585729787969617
0.03416397714292243
-0.07075204136163975
0.06813461330416684
0.04373604288631809
-0.1228989218559395
0.07099805700937332
0.003193813053686162
-0.07807675796141011
-0.017029264954238732
4.077378207887586e-05
0.10360393495941117
0.058946782540034215
-0.010111921938801957
-0.08524487966488425
0.010299251583774356
0.0258344928675652
0.04024498717530904
-0.04670301113370723
-0.07413599313033749
-0.006860828728341247
-0.06955408974578998
0.007940451319718907
-0.057216081358093654
-0.05579156032670762
0.04817366470615425
-0.14103653177267397
0.05729046168800457
-0.10662858410017928
0.08268145514435649
0.4819601149632019
1.0247546686860143
0.5016052868930643
0.07599124792447406
0.039965161343437715
0.06848538678322659
0.03280963202044392
0.0749465516375128
0.00527646433824363
0.02976880881630939
-0.050176458886787005
-0.010601919840935487
0.11274634146269905
-0.09023161470756913
0.02803793027252177
-5.673574136507277e-05
0.07147184716923505
0.005357363624247368
-0.033001402295657574
0.05710040620568851
0.07676984100421462
0.037697008592990654
-0.002065456491944813
-0.01600110662744237
0.0031271530726789914
-0.022683402245726347
0.096442239492523
-0.005778151886060091
-0.12891073116473437
0.023417719435161355
0.02221400871337317
0.033688473773177005
0.0008429994674957751
0.03880070917810784
0.048374496076854345
0.0473092376808832
-0.015575522604336573
0.0797705669403652
0.05105833101292723
0.06519768537588058
0.0657626657186077
-0.00694472584588493
-0.021046282581915862
-0.11966527948839406
-0.012538063925991012
-0.0635147199972729
0.062017066661794906
0.019947814366526206
0.010108112546918555
0.004893650528940481
-0.08093516085902704
-0.05021278396775837
0.04551023584756718
0.0963528988071358
-0.08080351986235584
-0.01820986551888828
-0.040992969860948775
0.008244435140385023
0.0030153313210961284
0.05551808858738632
-0.06007787711135052
0.005915742979844009
0.02478998454221397
-0.04086836491661613
0.04374919294508181
0.04779885586989026
0.061058211807928225
0.05819600442977745
0.04196509066122117
-0.059173713746406766
0.008335779828964033
-0.08341683862514615
-0.020741609592951706
0.010714378205489705
0.057115158019984506
0.05915317367250747
-0.01980045964139365
0.016699290649471857
-0.0016252921685455356
0.01639616976510077
-0.10491932947307954
-0.007678494854194107
0.09005895377922309
0.023254999495753447
-0.017796944381820293
0.022269783610522526
-0.03664770531224133
0.008767964267531831
0.028813119599818422
-0.026396737290222044
-0.05387029883351535
-0.06240461783083499
0.005271491747546139
0.0655370498482685
-0.02959103107317203
0.002717350221351009
-0.022399395258062765
-0.022213145991787198
-0.055073409078170515
-0.051666034447099135
0.006074372665124371
-0.014741997565107398
-0.0060728843762677094
0.031285861391379566
0.023618432950189866
-0.0527215552511762
-0.038864128253324526
-0.0079380159177083
-0.11255421161532525
0.057447193454853086
0.04392836924888985
0.05139881491095795
-0.015927821246298237
0.05330233416278668
0.02544639557752298
0.19531253466573278
0.024606618930430108
0.022412502905788233
-0.018125159041041783
0.014315914852266576
-0.06718480749868842
-0.02744834166878457
-0.08479274583540458
0.06417877246161356
-0.02783670189086709
-0.04812989670021453
0.018711111573149905
-0.06475231298401973
-0.059968134203184156
0.06847381043408543
0.011873838023335042
-0.04808806284421219
0.039746015578483646
-0.006956452998229693
-0.06591431994408456
0.03111656822201488
-0.07082232357696246
-0.06701532569670719
-0.009181017802815649
-0.06328843819987809
-0.02597677310110302
-0.009530901712107544
-0.011312185740595239
-0.015381289709502545
0.06245384436203613
0.07131203034182382
-0.009528707619180192
0.02243790074841622
-0.0652102900220503
0.010838785240735262
-0.0043014172413118595
-0.05353238518668366
-0.04465321115061485
0.04690670261008563
-0.054919758376965916
-0.011951206185520353
-0.014420057385445623
0.01923131734486497
0.010938119680770964
-0.04690063110502684
0.016462174440704618
0.012548661547561927
0.028260657494346288
0.04655305067303516
0.0969817479886958
0.046270428690388
-0.10284025139182029
-0.004189689338997533
0.07849047481592902
0.0402090361552991
0.02265679157963519
-0.025878227639048207
-0.13156541091602122
-0.010547959780555475
0.010539317402291897
0.06730181555666952
0.08748241539953575
-0.021402908678632884
0.039091426988086486
0.07257419894711824
-0.02604808480736605
-0.010024169874364981
0.06956453256869775
-0.006363642202677444
0.0460010074999897
0.05100975043397929
-0.0029985675220593616
0.0023471130328704595
-0.1448338582581984
0.03610365957887181
-0.009875190377013395
0.05511640038446646
0.038778326865510145
0.037628644240575826
0.02252011648739972
-0.07354235162335702
0.021990490212579487
-0.02258757597509216
0.02589810970424097
-0.02038000205092562
-0.02739699369665067
0.09773527624464753
0.4834129830577125
0.8984100568263798
0.5683206413694877
0.1368090170817901
0.0013667692857939498
-0.006843395969082358
-0.017928102671962654
0.021687924416427543
0.034787447973909084
-0.0029541265184708765
-0.018249533732117695
-0.032067927908093534
-0.10884950335274052
0.09776102304253023
0.0019486464747084922
0.0030030869642223967
0.021456332596979738
-0.06756909381087398
-0.04166380284496812
0.10805489520201897
0.027819899066130024
0.03801407207837748
-0.05066831092933134
0.006434301077988519
0.026351107991191614
-0.016158678678351912
0.05511953252550346
-0.018035524196879125
0.043357570541955104
-0.0014408552101336104
0.04596446356869212
0.01364383390873033
0.08655291497135592
0.036222793878445125
0.04547477410277517
0.020106061255468266
-0.057199230062369016
-0.012072985132200766
-0.06017520297711984
0.05692275065930006
0.055597529642742075
-0.03596603611743571
0.05298748404861059
0.022017403202250777
0.07879040268296397
0.01616738522034106
-0.0858044753078849
-0.007093764746271854
-0.022857967770129453
-0.014402789661698194
-0.017465458053097134
-0.034450671853685576
0.05549781766078596
0.04745631587661039
0.10403583215866874
-0.061238720027541695
-0.07518115596329668
-0.05714473429307685
-0.001445182180920001
0.07147111579167693
-0.04203775020108426
0.05381204618981511
-0.03632769259789826
0.11258614542261683
-0.11614234882221464
0.04600557978689536
0.08313159831188069
-0.04011938715463233
0.08176794598507148
-0.004034887482504588
-0.05297138013963392
0.021709081950597068
-0.09360536543398575
-0.03992549520591368
-0.0023475830589071473
-0.044037702516881536
-0.02506013273501952
-0.018908119678328495
-0.03882075170158342
-0.016851121727527466
0.03346818357850725
0.02920132767117847
0.08094918810966695
0.037138868035821004
-0.016555445219877517
-0.06946309419444135
-0.04571289914859966
0.11672584365060049
-0.008167125989182301
-0.03379171332335918
0.002790767598563545
0.06544662859482857
-0.04289700678080624
-0.05450051030715913
0.052340997073223074
0.07295747169364339
-0.14799182114204623
0.0441260383402901
-0.06789978515592729
0.009137402558559674
-0.03421575498116529
0.03207767405321763
0.02953313512888089
-0.024296037230497707
-0.014470101618429876
0.03753767573671121
0.00950259120045948
0.02379299103428292
0.04476075454142461
0.013742621073761974
-0.00987098870498858
-0.01028640584206405
0.04030046814526345
0.02527651179773799
-0.008259522522302519
0.012940348778822454
-0.05983827707458494
0.04366018796783674
0.03841906097465342
-0.05737879580240549
0.12051884423405623
0.06946861118573314
-0.019290110413973303
0.08086896348009755
-0.04776108378485474
0.022072864551440773
0.07188469236283138
-0.021438998516208424
-0.007242293423753693
0.06831873726676073
-0.01890230618564157
0.06095754128667566
-0.04021975173980152
0.03911226928964294
0.06787293817798573
-0.0017916163898573914
0.030992786579104054
-0.08976932628249357
0.01571622212039169
0.07059764378041523
0.013724919595438182
0.05427867513681375
0.053556197267536576
0.027773577912747927
0.04567852772438061
-0.03610640618591893
0.026347776741991957
0.015262525081167695
0.06455752156974774
0.02396929660937274
0.005880775492730897
-0.04588236125518527
0.14535018492654989
-0.014411736791212194
0.015591655351695178
-0.002133535385218197
-0.0021778318114336922
0.016672991581733524
0.07345671085652772
0.008744450203227313
-0.05090840013321516
-0.07618029466661336
0.09935663832431228
0.02560463727086842
0.00849698722583321
-0.08057615181105479
0.08289289799306523
-0.0018012713350914417
-0.03746819030047386
0.05177284173265992
0.0828616913551613
-0.028698422957845072
0.020745636714862598
-0.08208939094915707
-0.088663195586178
-0.13002049431421292
-0.02133252009752903
-0.06493863459273662
0.019687506590126178
-0.06288505740292522
-0.12043595922517619
0.03205273177917258
-0.04314053023974262
0.03465281754748727
0.03818166518565608
-0.006218448249084696
0.005124742455370157
-0.01697749251503663
0.04152698176881819
-0.06826154142243936
0.007182409130703495
0.07725445481472336
-0.026153769176883602
-0.048945308147510885
0.00040288157863905237
0.0037172640557066212
-0.03551620368787815
0.052627794712607937
0.04208317975165382
0.010166210796954803
-0.16027987303113939
-0.04225774394033368
-0.06847405033644088
0.04416613771726726
-0.013220585757956125
-0.08964411345694333
-0.012507472172684192
0.046597735341463366
0.06647941047090014
0.037162328585817216
-0.028033494448427572
-0.08107020364187488
0.006286176408974434
0.05978545913432565
0.4502065942547519
0.9794487125755471
0.5100074199149187
0.04016955058379691
-0.10986109861948307
-0.07473772275412514
0.019472473270581672
0.013085084515536381
0.035565662498654706
-0.05306291088156273
0.033912802023225136
0.03530379673633185
-0.027725124935328783
0.01732241784974792
-0.0323555622845379
0.10640618004852667
-0.03117819068275093
-0.0851534294302829
-0.058988281203306216
-0.04303987469536335
-0.07484960118639677
-0.0690519803196577
-0.023000383154190004
0.011817525517923817
-0.0027753144987443107
-0.0875482355233589
0.020775525366122635
-0.012315913257945399
0.008982815108894938
-0.05299595382211441
-0.10251799448575515
0.026537996381445952
-0.027561666137421587
-0.05278210591792483
-0.04942920870060181
-0.049792245503691976
-0.05317246617067639
-0.04668766110044369
0.09866427804363576
-0.00019091597451723798
0.007641428315240189
-0.014989128629928843
-0.009525534063805362
0.04188479635059687
-0.0456742761323945
0.05372147626138535
0.029456038558375322
-0.04163937249431063
-0.04242254368166649
0.05030136492369607
0.01141387318916277
-0.014507425300559186
-0.0025661132928768717
-0.03301643492384481
-0.005902324088379262
-0.03306943889715231
0.02321825646506613
-0.04769068280479711
0.12359638755745864
-0.01567880439602692
0.007664482322918909
0.01576978634467122
0.04928481381182477
-0.029262173369364493
-0.007454704586453587
0.0021470490831965866
-0.006743203817908561
-0.060502185144012934
0.06649367122633547
0.06958462154023001
-0.021818013183050825
0.011549306491058453
-0.017283637315003656
0.016501063685327246
0.058098126532161856
-0.052840316919437726
-0.0701596628994307
0.033382756150822174
0.014766165568720664
0.03970030753913629
-0.05064384172392222
-0.01449141432251367
0.03993648603806267
0.03520604867124203
-0.05329115592838973
-0.039522560287354964
0.032296480954296214
0.02582545991081204
0.028265958006150567
0.0947825629980382
-0.028517330740648845
0.040165147884206394
-0.021933145663881264
-0.06233588042576376
0.01420490583949021
-0.0715928041192612
0.006264837366486678
-0.08875755899601995
0.10367503316478344
-0.03952107889321065
-0.09712521319872769
0.06326874427927225
0.053776528590857256
0.03139081546378471
-0.05695447474207532
0.04316834533512187
0.029317445947191947
-0.06328274829074378
-0.038089150697332624
0.02657945098085872
-0.04461940974358361
0.0604193884603944
0.04324010328023407
0.019280769027392106
0.0438944702217759
-0.013542886435088042
-0.01774357796701405
0.012603325654225943
-0.03247134094652129
-0.06371252823551164
-0.00027550377507580824
0.06300100921239996
0.03730941310796294
-0.005590534699315343
-0.055496794238634586
-0.012543403070376616
-0.03054009788404747
0.06656013676365921
-0.038695850160083055
0.0653676480364493
-0.059337164288137435
0.004358076956200508
0.06732499952266224
0.04295012417530375
0.058632119703681165
-0.04439104386786981
-0.02189215177169136
-0.08576117396369515
-0.031741056587535836
-0.0012472503721977727
-0.04660564363502986
-0.09482356032076893
0.04141412061488428
0.0002790398723546826
0.07514019804489067
-0.09067476616343023
0.015694624376168722
-0.002000570460548828
0.03737930279054805
0.026755010036313927
0.061855728651600106
-0.0703447091844913
-0.08153677094714291
0.024064458663292466
0.04752361415967686
-0.03226740812310263
-0.03913708080994593
0.06474998391465274
-0.035090527749324404
-0.008230531580068834
0.009647302127659099
-0.05437391908361159
-0.17909586809642766
0.04671543683824916
-0.035045818416855744
0.03668603085367208
-0.013888170461993962
-0.056871580751856034
-0.007389467024905461
0.04255668677128007
-0.010469844351133196
-0.0660319151942159
0.036892049096045175
0.06108136984106735
0.033929636746834434
-0.02749502889075932
-0.05866182870226333
0.08952119299054476
-0.010306870643251129
0.04074210374496909
0.010407184578897857
0.03212347468098403
-0.03836506168733153
0.029576361222550515
0.04535732100657123
0.007437165885872385
-0.008629396672295375
0.0011907074038432662
0.06812964820631005
0.01181560152640487
0.024262481291779686
0.06742065236143557
0.028189065668609254
-0.028429221845417654
-0.09107953431300658
0.04716549149052624
-0.03295326465389719
-0.02349175647024253
0.009876788792951379
0.07408712836868457
0.45595965779276204
1.0555350980507863
0.5281236567335229
0.06304168556849904
-0.06044080315776418
-0.026898143663834674
0.008587221170592449
0.0017456401308748367
0.009177196912626206
-0.04294267380091235
0.022933524836234825
0.154450330284425
-0.0330035542072494
0.0057029874249996705
0.051525054850223365
0.04159327135390109
0.013640513994414225
-0.07157864087526533
-0.03775325258566333
0.03259709241499753
-0.0756091670827195
0.034621753451465585
0.029287781288470704
0.006593483879572802
0.03071166975712035
-0.042401509185304984
0.0013683313120086097
0.04267011469473197
0.038862000016478646
-0.006099445824478257
-0.14324327455780247
-0.00910877914519528
0.038916272050275036
-0.0313980244229359
0.05822942567847951
0.032004823611921925
-0.028602207625324283
-0.12136913808826898
0.04668820405496334
-0.017756156949869154
0.007392271431784385
0.049777150567197705
-0.05933178032169879
0.04447757277404968
-0.03721393717453897
0.026068000046260056
-0.012726176817103769
-0.01531451265909433
0.004812589329734814
-0.06309313407498822
-0.1511864156029891
0.03437725665565793
-0.007892878971768961
-0.015894431563464127
0.052953002937313226
-0.07198075284521795
-0.004619909112442038
-0.01556852523142008
0.006564196172653506
0.014918246138966355
0.0923220460874929
0.057368276647944416
0.04864684744815605
0.02698106357851847
0.02507948703629124
-0.018056621576593598
-0.0782216297006604
0.10014186372418335
-0.04047284783027888
-0.012615297539300512
0.061235566732853776
0.02778157694547727
0.01124399127939806
0.035599215123042136
0.010556126436631001
0.05342089913693317
-0.03617016125727584
0.03786727362258633
-0.07878728027391727
-0.02335240373732962
0.08949993570451797
-0.0287238802366128
0.11418903261672056
0.05385342219922308
0.04180509445414354
-0.05091871638216647
0.029114726153708664
-0.01388480761739123
-0.020546782286213316
-0.03463624843628152
-0.05219136286321553
0.006877697685007092
-0.008530201833954632
0.10526860931415856
-0.012674381653809207
-0.022718921228420792
0.06843556236883715
-0.09897671572218555
-0.013237055420241168
-0.08280368056381399
-8.794640677415707e-05
0.05433153982456175
-0.04589572742459183
-0.008532116493686244
0.10155888961191205
0.055255270631236364
0.11443390991978211
0.058102234102168665
-0.08792730595851166
-0.005752705827795898
-0.0530963973010799
0.06495156090932985
0.05164098524281407
0.10049176574044312
-0.04060654477627437
0.038938334066699665
-0.020662324880694482
-0.0439111029742714
-0.012968176673577006
0.0408916622038901
-0.022842843810733524
0.05211512981199828
-0.0702392186155639
0.014306670516727968
0.03343175202427262
0.02365507109585223
-0.01599915507401687
-0.008275080563672828
-0.07572225006118649
-0.04969524333171424
-0.06955773067967369
-0.0342102161990406
-0.014403061235384923
-0.016861262394076204
0.014337603291137641
-0.03772929845320872
-0.05699513637099819
-0.07079342959322511
0.013964000116430647
-0.0896327646915519
0.030505385023368636
-0.04467737019489859
-0.0022550897566938725
0.019085649856420344
-0.04996261997910095
-0.040975786468233764
0.07418895973344676
0.022509050750849413
-0.004894196922272329
0.07205268014837223
0.02089447541188695
-0.04476541811055343
0.09130630312396547
0.04305815871997193
0.01764544798103913
0.07751978307441804
-0.05381319123996378
0.007828025801603798
0.010527051327021886
0.014123620868427928
-0.030304485647922947
0.057716822434244114
0.07579176498219227
0.042178932530835905
-0.04839945636723685
-0.056514534709177236
0.005391546130856374
-0.012938172135017207
0.049351775893223836
-0.01641062865631344
0.018083694323493004
-0.013632236017003602
-0.007226531751547006
-0.03322783204208123
0.03321625157390637
0.032183172123811554
-0.06715452356706113
-0.00014746310012194719
-0.005631524794723193
0.009141212469016271
-0.020961577357805888
0.06631340847134966
-0.10180020565478126
0.006452431248518464
-0.06384719760430632
0.016104118760970506
0.02329010428648612
0.0175704181242806
-0.02098108504151243
-0.04057002702036304
-0.023697088239778404
0.06910133352566468
0.01160647287605036
-0.10801513168595388
-0.06049310773838789
0.08329849163008428
-0.0005899843750368332
0.02976483256310802
0.0016663011045278356
0.055374045481179704
0.01252713631475238
0.013470160368415732
0.014279536266133833
-0.02263432045299284
0.06529874769838598
0.024998474161492368
-0.06487411776191643
0.006431875700470505
0.012314105743173341
0.03911003096124723
0.02468151812523981
-0.0251817249410128
0.04561770174481793
0.0059451015015614846
0.04144493508558153
-0.02269639056839947
0.06167285242713427
-0.042236730873486006
0.009689810057846932
-0.0723968918319082
-0.008180910115231511
-0.08082794010924688
0.23522720848317027
0.5120632652390797
1.0609998185421652
0.4495889428450866
0.04732327587193345
0.05486785843756077
-0.088525138137109
0.02286998559643926
0.06123350733226218
-0.026664427131362297
-0.044225727985383954
0.03735002319017823
0.04769011494270395
-0.02382916380365444
-0.004554797696178082
-0.008766699466719595
-0.05833016865358168
0.038924137446935736
-0.006129382306864282
-0.04410060508494698
-0.04329492942302091
0.006406540176296997
0.04461458975352761
-0.006122829611659243
0.0784754588530626
-0.06599235056505423
-5.520365096788083e-05
-0.04758467808940612
0.11649877497682898
0.031088454547252314
0.013608720013257594
-0.00852001380977009
-0.016122558253650745
0.045187330078122694
-0.025624594243376847
0.06025639676533745
0.015384838998886008
0.04910127127575615
-0.025933505493560112
0.009773668998309736
0.021097879451212567
-0.060577134549047375
0.07611623939725909
-0.02794541784063667
-0.013353278760865209
-0.07626742074195472
0.06237081492965218
0.0354536232505936
-0.028601187658613764
-0.16742433285774938
-0.003660116480444445
0.07693204532713244
0.04976674915745116
0.018728690778208955
0.02546514872721648
0.01921097174230081
0.03125753288221571
0.09531600984351292
-0.017197025579911204
0.12102705353136155
0.15338812364225074
-0.05427552678428113
-0.06919137720147898
-0.00481421248387748
-0.03838017755512197
0.010395801442293736
0.08225112266444728
-0.06294010224085125
-0.055841161090200556
0.03671669203169269
0.02931407454204741
-0.006913287290532759
0.0023718864984290065
0.06113494144921408
-0.04143278458658966
-0.08817174697051211
-0.04380563077112011
0.030579639939274445
0.04146771473424074
0.04088959718546977
-0.07059552725062433
-0.12278223043893009
0.0035161626742548783
-0.02790947606792822
-0.05313681163621943
0.0014564957803797638
0.009914313606628663
-0.04578854291034758
0.09556199130353879
0.002983679219547842
0.19050959129319672
-0.06736482551079764
0.01980302437648909
-0.07704062275838049
0.02114831416283637
-0.09466340784302435
0.014313460651423719
0.06747379851484733
-0.04886786823800379
-0.005145241653572618
-0.044803202699200434
-0.03130488493523372
-0.036405118783675174
0.04732250109874108
-0.07791025745719432
0.008914737721769636
-0.02269523523900866
0.021362543290928807
0.01998185403076048
-0.05882518764708692
0.004331752149042081
-0.03480026416047833
-0.018508613420689792
0.0784532964957414
-0.08523485066666774
0.03495320775299724
-0.02843914645539027
0.03353427373298173
0.11395024770933425
-0.019418162294154252
0.017866812552705804
0.07229235074459388
0.01229472196253951
0.0029992233543891427
-0.03588616380159911
0.019858551830395834
-0.002941848147692814
-0.03749870082098521
0.0005534296478143186
-0.0452128461526241
-0.03567439608911153
-0.04902481180770052
0.005689172590062361
-0.04287746949349716
-0.05278464643359091
-0.06774268728381537
-0.014568984719040985
0.04514774839435784
0.03775453098545598
-0.050891432758822235
0.04642086361700645
0.06589122504656457
-0.003613999971286995
0.07545954706722645
-0.02430519439607849
0.033066242916660174
-0.05135591192962544
-0.020170363212081738
-0.0036895929700919666
-0.013828797515070795
0.02436150066300863
-0.017482065536711923
-0.03468045218126269
0.014889296216125553
0.03867830489363528
0.02699424758173756
-0.14859919560197
0.06305727687381346
0.02777191615508103
0.04266028045897304
-0.008127804637221207
0.0646799876200289
0.05564275266142548
0.05865857025391202
-0.07142540644155873
-0.12369723314609252
-0.04127678273090794
0.021663432420529434
-0.03932843433564894
-0.1006626691960217
0.010772120313560486
-0.006313315000970314
-0.005050465514256625
-0.03550822800515167
0.1437148816227839
0.014749711280358702
0.08749768158182512
0.03045363622150457
0.08520805322797813
-0.0465467789813062
0.023412475131796864
-0.017126387997762237
-0.1136002315701376
0.005927384659082862
0.010560535765979005
-0.04240475363891468
-0.08430910994057914
0.015295262074321657
0.07346602190261221
-0.025690909284035026
0.012097643291531839
-0.03931386632371725
0.050709973875903896
-0.01994737146858089
0.08284887255873088
0.0629290368597267
0.035189700595927145
0.4947658434227967
1.042738326529175
0.5485350192568601
0.19168040079317927
0.015016489876132928
-0.00839138553729995
-0.017569389848099717
-0.07407742711308132
-0.012383711672362846
-0.06070990476376995
0.03959241847591568
0.07232353693237131
-0.05901130272744878
-0.014840719597431933
-0.004605270885272837
0.0928201025497568
0.01624984926771523
0.024003891536507477
0.030383807787868568
0.0027122990027238017
-0.05142900638929099
0.044442307939185514
0.08474448658253905
-0.009593205433326112
-0.03783740526196245
0.009071782266191533
-0.13233785986145905
-0.007652233463850969
-0.06921590386052731
-0.011269416239507078
-0.005601435973505657
-0.015063658149150061
-0.06546407274720491
-0.00795628642423511
-0.031088501036624902
-0.01434096469124499
-0.01828831621747673
0.036758987464739636
0.0006499502126472256
-0.021415785701147917
-0.023008133684831362
0.03270266619352327
-0.02492125239811925
0.09951529728132816
-0.005502152584769102
-0.014472330038517202
0.016032348138072753
0.04762366617601903
-0.05259492446753566
0.0807373318746663
-0.06642437213037922
0.01571044990723205
0.028018176860997904
-0.0024987684813815984
-0.01031261240454188
0.01904606844185403
0.01751082434740821
-0.05972982806056259
-0.014172791852588627
-0.0792285542744366
-0.058523428688942405
0.00822205998390836
-0.02725331518520546
0.06254016809729998
0.04436629833541847
-0.0020383826757978374
-0.018378595993860155
0.13410041271309778
0.030619075520032082
-0.04237924502487471
-0.0026117189006844405
-0.11533228237903917
0.059220385578571455
0.027770737208168007
-0.010283017187208105
-0.07722068636063925
0.1041099423526202
-0.03195811724252671
0.013364862948149698
-0.09196172775086332
0.013953232928047947
0.02128568231212173
0.06738901301925769
0.0166274364952614
0.08050122992335647
-0.027427794073715973
0.006711909422637336
-0.04910084540030758
0.09552426869882302
0.015308952612106458
-0.09228049077794732
0.09261823113766132
0.0005165581114566002
0.04510355175328388
-0.03362019294150327
-0.0430074810316355
-0.06978119245975782
0.08520869753659342
0.02599673279664775
0.04178538027116861
-0.040401482997650395
0.07086676501531718
-0.07320973307943822
-0.00125986024800672
-0.0029407767485619997
-0.12283231292500307
0.06900964538519044
0.025071695676451507
0.08010472083698028
0.04687587300375823
-0.05691245778118895
-0.08845969265845757
-0.04139238365794583
0.043899119158961115
-0.043043120096387937
0.04934589058115099
-0.05796795039796543
-0.062262054508081616
0.02486772742452921
0.03281081777975972
0.02401752317067141
-0.0189867241535807
0.051125730141000525
0.01067928290365885
0.03688700639951332
0.026854292103028476
0.0686988071213771
0.020316014800634837
-0.009708711652021345
0.03799272471436815
-0.02909021489965325
-0.10473895112476926
-0.0049965390199088
0.013982557207945279
-0.04122979032069085
0.03929902442487377
-0.06172718941351155
0.008795841468298737
-0.009716455201260406
-0.02744122845089801
0.04939256033857612
0.006329658298780215
0.053411101454041376
-0.06404264819620328
0.07477905298504302
0.06267099104527585
0.08543288330703737
0.04977187866865197
-0.006077708435649341
0.08673578562895304
0.043578054724600725
-0.06089306234977047
-0.08097618352510297
-0.009729131260887392
0.08659555616948579
-0.028347739319341092
0.039755715187370276
-0.019037483909601305
0.0028236339153481574
-0.01295406884148388
0.06357083894446973
-0.008501335030662747
-0.0336378985097075
0.12353620551396685
-0.04362108386064753
0.018731168991009746
-0.015693721986087136
-0.011373989825487344
0.046489465122337356
-0.016655848869109924
0.02627468851890026
0.008214952282091613
-0.02521061694005986
0.048598451988862146
0.023476553267595474
0.018762989676952207
-0.028060567178971593
0.037984076885352776
-0.024067878261049586
0.00010061530559288678
-0.052514898535144565
-0.02804679154597514
0.05160544410905487
0.013819799579307719
0.09559398103939465
0.052796473022583515
0.0724039716048475
0.0036747728421470637
-0.04586411539028023
0.07582242999685114
0.0211000853346567
-0.030459268928519835
0.028480611805440693
-0.04148526022996284
-0.05428186810563288
-0.06960164049732205
-0.034646114660853836
0.11959767224206119
-0.006110061219388819
-0.043025796712043464
0.0056187015130000325
-0.034257618870528396
0.009828896968994381
-0.0953878643857744
-0.060400928810777146
0.04203808460421621
0.05591552442344603
0.07523842442812095
-0.038223305034700894
0.02098594482936687
-0.03210844696304903
-0.0048275277204643564
0.01751772701302943
0.03336018501595842
0.15235930431315492
0.5219374529282312
0.961997152339215
0.5782290174436657
0.09465301917998867
0.007671202743875852
0.0547720538052382
-0.0064828740158685205
0.07716035129071566
0.06336333013477537
0.0027922530198052223
0.04351905736138047
-0.0674625694926277
0.0029462325412732363
0.005678037892159181
-0.05176226045320136
0.009779518669273372
-0.0163206348837534
-0.07294525256800796
-0.0007759248460897615
-0.052083355164757386
-0.04747385629982311
-0.05258702669737541
-0.007049023313076573
0.03079966476803698
-0.02964857328298677
-0.07331122942790402
0.05293684488610876
-0.11514259169170332
-0.049118308674755855
0.011757944344006368
-0.03002472117961057
0.0147299725569724
-0.019927533666426682
-0.032320148100100185
4.6380982519069684e-05
-0.024277035085112
0.06591509270919875
-0.039602326481410044
0.06787812789467783
0.11055563021373423
0.03309633854320508
-0.13018065250898922
0.014577668401825047
-0.025238921523360082
0.03983476720774134
0.0574020358286556
-0.010971052764392152
-0.025311483776512725
0.10905620352783418
-0.026757751098018773
0.06796470412710302
0.008693998965562139
0.006817916836770696
0.009015418214014073
0.012541200309370396
-0.08016023671126196
-0.06905727241896656
0.08346984033011964
-0.08700654348869455
0.006725407696076266
0.06270708037699832
-0.009536475421786953
0.03569168138650451
-0.021109148944572605
0.054003079343683286
-0.07932205336186593
0.01480818283045172
0.0026713974391068926
-0.0332927190616741
0.002414598004536503
-0.08855477986406268
-0.0016593572689719929
-0.00872678228049323
-0.039629310414972085
0.0370084943049051
-0.02788057129362
-0.003518396970430058
-0.03534425437726061
-0.18455937908896536
0.05840109790295355
0.05553152658616792
0.01746471067936543
0.02269290172423807
-0.075745679473102
-0.009563755075335852
-0.03570782209864492
-0.07351501336097535
-0.040859824338003024
-0.02701494465833918
-0.013641945273457022
0.06462676748627678
0.06217129864120083
0.0012839010003251564
-0.053465736423904925
0.012255409568541003
0.0017242332370928717
-0.011736162182364732
-0.015791704236477584
0.041251307634950135
0.10994609460489653
-0.10401406564614941
-0.02276388944299008
-0.08028783531316316
0.05035094948612084
0.0025963050829454016
-0.0041539810219735854
-0.022956752719163205
0.06460842906038901
0.0017137687312385845
-0.029993467228002148
-0.017569916598451456
0.012457400096572568
0.0011881169349278495
0.0199952415721696
-0.053334796285721776
0.0033966490730061635
-0.08512348902641798
0.02853665904764013
0.041874006927112774
0.0339116667191984
-0.02831889576314134
-0.0045482346585629255
-0.02362098774404167
-0.06523383012628951
0.010124381454438612
-0.07552289319428689
0.12247116834261676
0.025413826438087622
-0.10370489734464716
-0.05203096228401837
0.019678046568194878
-0.0007697272399252928
0.06221407975417225
0.008647207026618215
0.03475538839559374
-0.007152569902779387
-0.061161271884799744
-0.026359824044531233
0.06673095161443444
0.008185512226479619
-0.019775211814449575
-0.025040878846081107
-0.036495958459920534
0.04774450610677522
-0.019768888255212037
0.02205629309171116
0.019622576064295988
0.026671322642730484
-0.019914931764615975
-0.016507321558960033
0.061921375155067016
0.12679902397703738
0.03611442608226
-0.02591578300026989
-0.024233457830175734
0.0382373297792627
0.05168902084283892
-0.0275323620295174
0.039188189887517676
-0.026185267487829372
-0.039904448135714816
0.09854642670270117
-0.023508288929275957
-0.010836629140030855
0.04191726142140982
-0.028380114312881156
-0.019890086011096236
-0.037152325105813046
0.016518083646276435
-0.07389968656731918
0.0832071148660567
-0.0320786583695985
0.06194714975269081
0.02824705403640675
0.0007246912149001128
-0.04051076682869543
-0.03915990364520252
0.020238780084534547
-0.09704512136318891
-0.08912902537500897
0.017079330942264763
0.0056376897243520935
-0.05163767783915657
0.01761608431120614
0.01931728903013602
-0.055621997697888594
-0.021637330195608775
0.03761381021075357
-0.017086121370805032
-0.06952748546979595
0.14098996149340637
0.07607346579127966
-0.08578492388068226
-0.06365543708819764
-0.03245247356477802
-0.08305848833339836
-0.05934678121434858
0.002208478450850266
0.019366127184553508
0.019976604757914608
-0.06574567961401824
0.00987177499277323
-0.04098106489693653
0.0833649723544572
0.07958680292216501
0.0050088180365176725
0.07669386806586659
0.1108658289358278
0.006904843142839446
-0.026526419284737413
-0.06709679762790893
-0.05390378152588948
0.02872107432305317
0.06936553924762609
0.5167979910841538
1.0006651637006325
0.5110533038868501
0.16794437554474634
0.09513199879093903
0.0041691304558018625
-0.011136870684545011
-0.04280755929065712
0.05776805821362331
-0.005105347797785147
0.09990687336589872
0.02587063916789666
-0.01971370921434009
-0.03808109713906492
0.02869504941689918
-0.02822401287270221
-0.006878182315575992
0.019380460180133986
0.052389982924215185
0.11557225468264876
0.04238333402004919
-0.039512032259837494
0.07960074158272323
0.02551695465577408
0.03233306448116963
0.031102456263134032
-0.04406931951373997
-0.06333905519246785
-0.0006988929598043779
0.03197327439054084
-0.035642155328241366
-0.011647402877183567
-0.06566483427898986
-0.04108825695781465
0.06178742656685981
0.0005581376425041225
-0.056011998847812494
-0.1092322656780142
0.02809525678090269
0.08957455706250816
0.06143331852533876
-0.07934642041681045
0.04393603538308336
0.0003632781384836787
-0.0027345470372040956
0.08663313037219167
0.050574464915097345
0.02765415963561382
-0.0156390051113865
0.07371959889767281
-0.005165641677605979
0.04326667861605427
0.06199553141395689
-0.07826576963407417
0.02823041376134526
0.00760526131818488
0.12531539655407123
-0.019971916882555535
0.104368553005814
0.07529088868428256
0.0039862030526750655
-0.020618195266703245
-0.029125727607386916
0.01702230377676359
0.07151936382863575
0.015795670130845527
0.012665057085182108
0.11663979645287226
0.0371427512961959
-0.026719838500924804
0.028434953668765875
-0.05630166806623678
-0.04122750611575547
0.06170051188810674
0.022333346719007097
-0.002849949150565167
-0.1207485474137696
0.0314362699418328
0.037879080590233094
0.1187177846700706
-0.033902700164762364
0.04089674958860016
-0.07718314603621858
-0.06566041531298393
0.046206067993058174
-0.032007727919666384
-0.06146025561774774
-0.021717205013414297
-0.06829002621232187
-0.014322839704700913
0.039003247203030764
-0.011283670560232502
-0.024599794484636905
-0.0030712701498963367
-0.07876999313451111
0.010465790443400002
0.018688211205189376
-0.07281362642025845
0.007260740767708118
0.023770001780271124
0.04202010404035915
0.002852524333823226
0.04090793573323562
0.019651048957631
-0.01195789226244696
0.049021135612666224
0.06144861398576682
-0.014491716883133506
-0.07277747857687222
-0.022194471680592364
0.006170611704282358
-0.06195925476127896
-0.035416366822050335
0.08181998689596875
-0.09548465622706608
-0.012628402851801519
0.05475311554681074
0.021516599408579768
0.10426480916170798
0.033274811029941356
0.050712347527799684
-0.07070686681044247
0.1716670625540478
0.05972612640029007
-0.03546747132117049
0.005510662395095173
-0.06444193171081973
-0.06501792522077048
0.0851103398195131
-0.06624058925144086
0.01346805471541045
0.04489313997453173
-0.023939889818927827
-0.0895347106887063
-0.02394171357130401
-0.04027632989467991
-0.015295558541620683
-0.015206925736583138
0.03083594719200084
-0.02768442204808343
-0.022971455553775683
-0.003564656875721993
0.03432832562550883
-0.026549711354135426
-0.0012862278979151526
0.07570914831317428
0.0015144616975446585
0.0377115928644389
0.029603215180207566
0.09024935241061444
-0.03673299518361865
-0.03562627407518817
0.05193528559478522
-0.013135177567569992
-0.09687100705332155
0.04159911477705226
0.08136792351246315
0.032815978289292246
0.0448618132513251
0.04797906585312006
0.013019561009692638
-0.015491103468856763
-0.0024757907539071267
-0.03470287715058631
0.007166373282675676
-0.022209551431603324
-0.010046840994375174
-0.019933837662736247
0.020930376985771153
0.00931988798489343
0.0160223763849243
0.015915832474258443
0.12048343860901051
0.008216091985054151
0.001726362457453188
0.008133234905354569
0.024858351999868723
0.024414047370048625
0.024048398598936385
-0.029613464027679656
-0.015944801704928666
-0.007399412910462357
-0.09951997801294464
0.06154833035971326
0.026873143668036132
0.08376038414863288
-0.060889294869741
-0.03267024188174397
0.023554865105842874
-0.04956215720579171
-0.03930742087716488
-0.03499852796745952
-0.008863855402898874
-0.06289856555466049
0.1592101251063343
0.4030970162612876
0.8833340370703993
0.5300086686621849
0.046478857654176066
0.042138983747844944
-0.0344218275404563
-0.04564070184927041
-0.035980244233508485
0.045607360158018695
-0.038430657910083516
0.0037354332399382392
-0.01898560006561035
0.03138742175489834
-0.08911806359238818
-0.023314272736107308
-0.03641922361582043
-0.005216562345252932
-0.03853413175298277
0.0012116040249874134
-0.060564547737982616
-0.08360262486693744
-0.05553126217353657
-0.08362030110130822
-0.13968956479858974
0.025724660363236312
0.005374847609146489
0.07939073957694409
-0.018160348905264325
0.023901796911702557
-0.010922613790884612
0.009211164450084824
0.0792249048356925
-0.01895828541214162
0.009272238048517385
0.03129812914139312
-0.017655966449497237
0.05613978337196251
0.019107252763567378
-0.051574672714805016
0.07333954879234746
0.05302804340697899
-0.04999836829342395
-0.019763089054326426
0.06855105339323435
0.00711303713341056
0.012851468669822765
0.015807492832982495
0.02229607904714917
-0.029990775589008145
0.0038279662477792237
0.05444314019647856
-0.0023409087276642267
0.029996544854208385
0.0515382378022026
-0.05000254382252202
-0.04636111736030819
0.03219958884257604
-0.006696639158094588
-0.001908312053675143
-0.05054220627731633
-0.024673662725450057
0.009546463283250206
0.06059603436771998
0.04799619067634022
-0.010537502013152466
-0.051102398037451036
-0.012320489213829632
0.03987366647224941
0.04644358247517225
-0.010773289562153766
0.04373423814326728
0.08494494551811055
0.032265133514960985
0.03060303587692116
0.001103347358925974
-0.04577306118442468
-0.030286282308161567
-0.059121276962090956
-0.06497337468928353
-0.07062407583289008
0.1014503061896963
0.022865599961233076
-0.02071134180438926
-0.035478008723396445
-0.002537262412331661
0.034033381572456334
0.05942668785789326
-0.04612613244004637
0.0015721195246878967
-0.025919477955047905
-0.07235906975846983
-0.0491463487493807
-0.026114705545454864
0.014419087643732523
0.03025173115823069
0.04341001538484216
0.029984283862945008
0.10464168777844714
-0.0381586094450881
-0.020221776775522265
0.016476989067727876
-0.020657473335454018
0.030013294434790477
0.02520113452331592
-0.0736422872401691
0.026968985401798512
-0.04940284943588627
0.03934362579508958
0.007854070205622215
0.008818943463775368
-0.061664611957110406
-0.0001555211764390985
-0.03812620777421673
-0.017206076390426893
0.027061637473265628
0.0075799626280330865
0.05398538212652553
0.04951906888832324
-0.0701692356644536
-0.026994318228271683
0.03288466473268789
0.0848524636231196
0.05020239113940542
0.02551756496773405
-0.012177977796256075
0.028596329789304615
-0.07238712426755894
-0.02680813247381833
-0.0517284571622632
0.07926033782024504
0.02720013984375809
-0.05475160066167002
0.029846409196815568
0.005289748202991816
-0.04650029716303538
-8.815804086987322e-05
-0.09439515287487404
-0.01315798512262221
0.010265660837179348
-0.0028526406322487603
0.007675711626505728
-0.02892745247092701
-0.03149497404774784
0.06221847908772792
-0.08425593366316536
0.12197789049076953
0.07999102483140952
0.04155189811430716
0.005154090890186995
0.09191799413944411
-0.028255014274778806
0.06400809773494033
-0.032256356203818656
-0.01143585297078581
0.05146598593519841
0.050463885296727864
0.036775975013152565
-0.08136130928740776
0.026622727742754072
-0.025523663262877055
0.013424699301770563
0.009792411738957302
-0.04576143998457342
0.01053463067552102
0.0023078143720965715
0.06766515301927271
0.0003017037843831704
0.005865840226500131
-0.010210766113516321
0.041258434616930115
0.035524629857865773
0.025603886411853457
-0.0078292468612991
0.09636124514719602
-0.03922799740391624
-0.06053351357915024
0.05316991899324977
-0.007598567310572242
0.03212859324627639
-0.04205392770960408
-0.027515930613027758
-0.04866168658886522
0.10142605046159224
-0.028406280445027174
0.012407865846977931
-0.05747816403406854
-0.02438713681450659
-0.0069859402966176085
-0.049949086256341896
-0.07366180126058816
-0.07187869708664285
0.06109413636099945
0.041086536450778394
-0.03250169639035801
-0.0385082661394984
-0.12437361548330722
-0.04309087073313059
0.013276359007507685
-0.07701645037146136
-0.03651917238599822
0.05798137035958965
0.11679340495886026
-0.032743139339695755
0.0003210070025329382
-0.008190009094520933
-0.00010072839201922532
-0.050681112671389285
0.09579816359820842
-0.013675902824664868
-0.050877080649152466
-0.11984454443869484
-0.02819931757318509
0.05289423450539226
0.03696387451990562
-0.12702029444190366
0.05752212145671897
0.0006800974215270426
0.046995321000174
0.4552892929888028
1.0634188804208102
0.5542990038617034
0.13942226542340166
-0.04888033483207301
-0.022071308697982375
0.08695188418851287
-0.031171331405187526
-0.008047184104023488
0.0007526653857212035
-0.07350933435604466
-0.011251225338127026
-0.0012632930159537986
0.010533703173606716
-0.027528040537966005
-0.022370872410712665
-0.027191457864645736
-0.004428457114890619
-0.013996634531122999
0.008108273776421458
-0.01724130771467528
0.061378465033424645
-0.012993327078598014
0.024238790616836068
0.05413042402419299
-0.025637346094664726
0.01058794302081939
-0.0926945327812288
0.04059399833007182
-0.04929559284494033
-0.003926450691897406
0.03752496546913925
-0.03697745031441804
0.012269092732212604
0.0685423278765324
0.055214382684703134
0.03975864467008676
-0.10665467243452618
-0.05767685012193096
-0.033253503386134434
-0.09405748377119233
-0.010910409521605177
-0.02861191935924956
-0.004279883978964851
-0.034021152661676164
0.02514983337801792
-0.03113311285023121
0.03526041475800345
0.04131133120832505
-0.008337424230201907
-0.004259724166286985
0.038907434768154864
0.06876895283877214
-0.10918843863345017
-0.06966682706815285
-0.01308427082955361
-0.028303797950838455
-0.05429736256647266
0.058339491132583444
0.055120426441366055
-0.05620126130650763
-0.015075940186220292
0.004141138640627282
0.02117334570991361
-0.08949174456331828
-0.06449426103084176
0.05875396842160927
-0.02939937846078075
0.045431807398056114
-0.03745218563009522
-0.048946699677988884
-0.017612365221729855
0.007909325928946614
0.05950511027926936
0.0014500669122682862
0.03037139328362248
0.10692023868110141
0.004801100266128222
0.03577462347710867
0.028410597780457448
0.025703284232936097
-0.002637466641469268
0.054686112539209734
-0.10892337247165461
-0.06998898126149268
0.012390796249441198
0.07476110167207117
-0.03355372915064063
-0.09129754367544167
0.02040210105677293
0.05084413130197556
-0.04094787459196264
0.012496980085397421
-0.043200536605791366
0.021995060721240876
-0.0463904470530453
0.02905236355724965
0.08426623063922445
0.05548243242728906
-0.08399157480510634
0.09080481556227382
0.02688970241642424
0.034821433524037805
-0.06426503616657339
0.0009947147719408594
0.06200764785509583
0.05432295693476528
0.037106951663511016
0.001359294825393464
0.03704410612747271
-0.041445369692046236
0.017854812406145764
0.015113069556256426
0.05049599127313651
0.020839047138229243
0.02937292182005069
0.07393605440426894
-0.062399381902234735
0.0008946430005982863
0.025776808388036532
0.053839880589437755
-0.00013211249819307963
-0.050678919770856194
0.08239897783448906
0.017231434749564137
0.04164000358696851
-0.015132529166002601
0.012173641644888638
0.05569148561420163
-0.006533000466478043
-0.04965458508696071
-0.01748492554427698
-0.008996260025079273
-0.009981765896802434
-0.07260085792340203
-0.018989208646442147
0.04661877583513517
-0.02235606365285896
-0.08853883157704845
0.11574116606236678
0.0717695867950922
-0.03152867802279504
0.06852969624024587
0.053544476363058646
-0.07214631650290318
0.0651405226367928
0.030608823530339876
-0.04267840533307282
-0.01975980176613017
-0.012106383105642911
0.016349403938953937
-0.04984718078625083
0.017340111793084333
-0.037385394528922936
-0.0017755641871637755
-0.02084559319481576
-0.08431671784084728
0.043678302609660075
0.059729341449340424
0.007381889586035259
0.033845342274091174
0.014959346284199352
0.019726327080685196
0.038625118656088746
0.013750975991030666
-0.03693500355980003
0.00713412738663801
0.004600040832977462
-0.04445671666152763
0.061259365703191015
-0.010148572292517087
0.06152568468124812
0.04824198230143073
-0.00921136106316004
-0.05862301465273732
0.016252913993671955
0.00931323198100404
0.025712929149782893
-0.08039234933085124
-0.048272573929753225
0.001166894706000935
0.016681041904868812
-0.007876896391102983
-0.03273368077823749
-0.022572608129883483
0.011073403371601068
0.05350972907603918
-0.06416251209147016
0.025969243622321576
0.020466474266223094
0.07008842314457919
0.10001630378026616
0.026682311511216358
-0.0855164999849861
-0.01738366025397083
0.057644445597693134
-0.011602530115894953
0.01833630632406707
0.025277626502764085
-0.02148419863306602
0.05880221577305374
-0.019086809353794434
0.12503617561322797
0.5362579903205331
0.9341162477531447
0.46766210009448067
0.20529743833855957
-0.03168978898569471
0.08454733172916329
-0.02566545656557343
-0.0037745698860240555
-0.13439494801873078
-0.019633186074890382
-0.06780874469764736
0.02016897705225386
0.03369200391118012
-0.06849242610527542
-0.0615183274336555
0.014379628781111342
-0.0223917360125879
0.07914659945055597
-0.01543449048510073
-0.017201826524307955
-0.03828389324147244
0.04173507478050964
0.004649247877093171
0.041551436146130556
-0.0004542858954479062
0.00853277905209812
-0.053037920470520354
-0.03971038200457622
-0.014021049969466287
-0.0007730905689990604
-0.049681666099304085
-0.06477448405789808
0.023784390298619645
0.02239363559830277
0.03200585878617484
-0.07921569322080664
0.008013951491450977
-0.05962977255105584
0.003163883418961
0.03980139668715094
-0.04227474225510028
-0.04000456525859175
-0.1937841929828919
-0.05056687086155035
-0.04218396112061737
-0.0589247372971867
-0.0479626923527898
0.06157559082729243
-0.050050666000969836
-0.009204545915747748
-0.020523441845519685
0.01680019416864865
-0.038102448381047295
0.0725324578037404
0.006654364771685595
0.03958793142165224
-0.008198664341706402
0.016475696832165848
0.0189351852386017
-0.06513361776390256
0.011124166887104877
0.006231187071388492
0.034986364837943505
0.015708340168768122
-0.08630970075435039
0.07022038557134855
-0.002044420214948093
-0.024026488079763413
-0.0642121286231597
-0.04616077248275638
0.020358113793454258
-0.0016717808363468643
-0.032407834132631035
0.04987157504613441
-0.013937872125909648
0.0061244362700945895
-0.06526174983334612
-0.00487719303336967
-0.016381966567813232
0.05530933254549844
0.0528104414077519
-0.05457384034016367
0.0820877287280723
0.04502101700913986
-0.07504780519435156
0.026433510134067445
-0.054938009968696605
0.05713383922206849
-0.038926478660764596
-0.0301163024109396
0.019693693386458447
-0.0169212443936483
0.0259069942363537
-0.040578046976478155
-0.05431893527902818
0.04274116692734752
0.0035715272705864574
0.020833886667571307
-0.0032252459207418715
0.007012563950784471
0.015675881386051783
0.039336273027749225
-0.011992752034203009
0.028546075468280502
0.06628343367579238
-0.012466477241897646
-0.07908352366185167
-0.02304587590776791
-0.016809644558208794
-0.005574146072642328
0.01578735138184861
0.05148695053221003
-0.038005792629105035
-0.017469128402648512
-0.007990953352387259
-0.007824985062810557
0.008725656159861128
0.029710115055255767
-0.07845436366783304
-0.04276979382269247
-0.0207216560264187
-0.046641985084306524
0.08596493371700684
-0.06891945778673117
-0.08272875225963733
0.06751504089462752
-0.12408713109504305
-0.054936550682928464
-0.1195881886992291
-0.015807143312407658
0.032251313592897755
0.07347274973615085
-0.030011764674337117
0.0009882847597220018
-0.012546096644989294
0.06109926776267688
-0.046559869191381574
-0.131425673259246
0.07469466403902035
0.022214302023356763
0.07995586314371084
-0.03507669248459507
-0.11708093206002648
-0.02344134181951116
-0.005791531576645041
-0.023962806914887457
0.017774987284637975
-0.017412132704176957
-0.024575918382934256
0.012139687815923571
-0.0731402031903335
-0.017449283900561618
0.049411052595946546
0.0018422872572030958
-0.03542092760148232
-0.02745227330217156
-0.02606685536666843
0.10395519373894957
-0.10323564687366207
0.08227095387907708
-0.0871508332746168
-0.10283619477993858
-0.060903111496155765
-0.041149703904169985
-0.00706852315497027
-0.03635404915312761
-0.0033295873583284183
-0.0020489163109661014
-0.006761143998197478
0.01276755055318777
-0.024239345608146865
0.0012638190824323951
0.011782829735942982
-0.04225883997778752
-0.04656248548400137
-0.0002109677353227384
-0.055363593266499804
0.014286079794484053
-0.0060282105904570634
0.0629236647100212
0.04490943351902763
-0.0035513140194009408
-0.05485659842705483
0.06345009236495329
0.035145700634032453
0.012617501028856637
0.03553382369295206
-0.0313949646779798
0.07078808845534908
-0.00030691722969666455
0.065540554738566
-0.08112196374413819
-0.060619495830937224
-0.03681914281935455
-0.014091019978795137
0.036018511371983954
0.04497568028317473
-0.061348937622584615
0.0034294221505573024
0.008102485247132769
-0.023296570405667794
-0.017685883525253264
0.037374406027159475
0.16957296860343551
0.028665134986871427
0.07296818522005065
0.02057310001190188
-0.04459142921404517
-0.1178113582650192
0.010032136936448971
-0.04070896693132586
-0.06595137047357467
0.07561075074870288
0.17031338017994624
0.5937141336348436
1.0359658049708091
0.46142351138359156
0.16505322891670016
0.003916117060991294
0.06691956562567129
0.04868593279889794
-0.027078733228302
-0.07374324244600809
0.07381910944298431
-0.02874362355094175
-0.06081963149156902
0.10222370070317366
0.007865846813655746
0.03564203335331232
-0.0599014180298553
-0.05217245199331703
0.04226677237139162
0.06427681037604621
-0.016759752913603022
-0.06352329792327137
-0.0494773239801972
-0.07111469932175989
0.03911085591876522
-0.005434888792837748
0.030176156808307222
-0.015589891829689357
-0.07773881633009012
-0.06468900305615007
-0.049624041314732255
0.01889338226190348
0.03329049701726878
-0.12458158299156058
0.05457744555030563
-0.0002925713645813218
-0.07727916147052438
0.048506247379391645
0.044785261679593125
0.011170879764656775
-0.050576822877701724
0.007441846840546174
-0.07236382120691684
-0.031149660738818388
-0.055001551897278324
0.03112861780927222
0.0007010220400925468
-0.04449802912341429
-0.042421244064830776
0.017483518302406617
0.03708564296711157
-0.010945009070269351
0.03292483894784184
0.048597006902752864
-0.017955840968843055
-0.09261125633809378
-0.03142097939534885
-0.008132206417065736
0.02354456025449855
0.025791715704886753
-0.0745243640021027
0.029235251259652636
-0.04549717489950944
0.028849135820594264
0.040622968475117115
0.05738512636876197
-0.026342547153289722
-0.041392674731433265
-0.005860651228248624
0.008301707761889734
0.020894100635636542
0.019150036373648496
-0.013882627452004062
0.04469318362018727
-0.05623841561535534
0.090330576465885
0.07469210242815066
-0.10015624344086915
-0.06674211253367038
0.06903845933222909
0.01345368237351464
-0.021582919569471923
0.023662994287660093
-0.07354186606129447
-0.011452254595315946
-0.09091314925176075
0.10481466437268235
0.08232504176695166
0.0968838952380322
0.058455240054773
-0.058417431024012395
0.02212108218323815
-0.04694063558369406
-0.007026689893308798
-0.05702126796620534
0.04621508083193085
-0.0007696720265143011
-0.0158405946746278
-0.028260406041961273
-0.06406889507441892
0.0013770240569262295
-0.031125567477260887
0.05015288759864445
-0.09336407289128427
-0.08827936612354392
-0.011084115520461029
-0.041770656003474155
0.022782395088519262
-0.013897056753784312
0.02197165138919678
0.04391588761800389
0.04164730620964
0.0035815235701468088
0.015168547701421878
0.04080935901859332
0.10807982154936649
0.03069644678471747
0.09552125943274999
-0.014783750668046745
-0.011217584665995964
-0.018151049978787383
0.0581907116047251
-0.018280093746218525
-0.01869537995408125
0.06396354414181199
-0.10153135963795185
0.005872604910629811
0.06561583233211608
-0.009345949409735382
0.043347994718668015
-0.05326318249363493
-0.030127519986591463
0.05629869979031826
0.1319701618229538
0.02697709558516065
-0.041260033828981316
-0.08097769079265717
0.010487205656277268
0.0034931016287216912
-0.09291122549201197
-0.08383960516970017
-0.047801361849794645
-0.025061467273765726
0.04179408199065878
0.06438228224233358
0.03766078399207079
0.041770043864021174
0.0581338033683017
0.07452733695999018
0.05958914829353188
-0.06434056449784185
0.06868068168476886
-0.004858689149865227
-0.02412069293328805
-0.011552570679304814
-0.00815753684224147
0.046115240571226054
-0.05658468992340302
0.07294266956121934
0.06083666512553279
0.0240697416464961
-0.043427836562899835
-0.0053361998623035235
-0.04592860018752383
-0.040637799938296006
-0.00995402800062613
0.002438737801486861
-0.04294417505765585
-0.03164045832959824
-0.012100030291967614
0.03396491218917446
-0.025823093301843986
-0.017080952114778197
-0.004057912424976755
0.09789805805258546
0.02971360158875945
-0.04410135354439829
0.03886152026713415
0.026698151891682127
0.029976045285019116
0.02660815540809612
0.005841154924929827
-0.07167059575293636
-0.026448748902558536
-0.09274634283167286
0.0724219735050567
-0.003104620745284261
0.039528968354305964
0.02790703922238308
0.06355942798187109
0.0948485790224195
-0.0052913055432490304
-0.010993633468284296
-0.008997035183251163
0.0033771128743687005
-0.027896901914820766
-0.010969694676078199
0.03217836253368428
0.0021479524081166514
-0.02566389531968833
0.026447243871795735
0.07663152925293143
-0.018492111706534944
0.0626342710269152
-0.013642028896725087
0.00368353456917103
0.042746980715453714
0.028967865892937584
0.03624972692642572
-0.1154237320713544
-0.01982925993443579
-0.10416905808886878
-0.04863826363982485
0.14594090870982968
0.5556924796530055
0.9277612966359863
0.5123339688610982
0.14282743881686405
-0.05324959239481543
-0.033199193319280104
0.004734226812816903
0.04889704311073269
-0.011783805063233498
0.0046086751244298965
0.032335808530246306
0.08087785340297145
-0.03008855928784734
-0.09946901253465171
-0.005094061532189417
-0.0319380977231915
-0.07017219108657988
-0.09816941694573839
0.028677250144254714
0.06878700581992916
0.05881675509458049
-0.0031594428042630803
0.023777831848218817
-0.03711166342439972
-0.05072214036945908
0.034562704159890864
0.04991027550455597
0.04610737298583557
0.05451012584274705
-0.04984164761446969
0.017746684767944824
-0.01268296620355004
0.030642127973674844
0.0736795572573392
-0.0035720642884325923
0.016943673861890315
0.04650347461285606
0.07222107945108427
0.04527632766928508
0.0899438075157049
-0.02256287930622322
-0.06820397620766533
-0.025136590178049152
-0.038210534908502174
0.04170255994837539
0.049309196216826084
0.06380179162727534
0.0006404127946123201
-0.010047032480292204
0.07010777175929116
-0.08289902827471829
0.015937288191510274
-0.025027825948475337
0.04623139173239463
0.03653927401892632
0.07247042476604183
0.007721165629287823
0.07455504160960852
0.01795072670896766
0.030791283020422847
-0.0534759976635787
-0.02567622463105289
-0.01514788286692578
0.13912137817017897
0.03486588559442217
-0.08449446561828433
0.056742607337922496
0.0667210548845812
-0.00020145863804088912
0.012002886793209717
0.010543306405256718
0.07981981825154592
0.020563188614829753
-0.005939747103455138
0.013407743112448928
-0.04868682256235489
-0.014491341875894013
0.01427075500031523
0.06441995241896101
-0.018980481638283097
0.04985346803451174
-0.053521905225244686
-0.03128707262013156
-0.07802165928717562
-0.03111069434896519
-0.03797961018967096
0.0390902556774442
-0.027253659697619004
-0.036515344101248286
-0.04777064810057194
-0.005745922140952121
-0.05105231473534671
-0.010670514946671684
0.01074333001141709
0.012635828631566365
0.030744708166148733
-0.024216395534084584
-0.008386131265619335
-0.032444383191671505
-0.015391098620482975
0.09453921163844992
0.039330109176283524
0.013462995481018761
-0.04560781588431671
0.036735333081283
-0.01760868365295808
-0.011453228857280003
0.08202807753468146
-0.0034708781037704147
-0.0753636439407706
0.11095091512147287
-0.0836287437857744
-0.06772916863016962
-0.12854968693522745
0.032601796290124795
-0.04156517582352759
-0.01606779033839614
0.014637328585210607
0.06421533443817269
-0.01518581400399949
0.08426081688230568
0.005301578512969353
0.04869268766361212
0.005963258869584107
-0.019131975887167404
0.012792772834005085
-0.022408896831474054
-0.019131067699436084
-0.0009567910531288039
0.021096774777283066
0.03106173705951248
-0.06288789704290045
-0.02977357710960343
-0.0015736311128506137
0.0413307967350204
0.021796953034954082
0.05725034544545754
-0.05129357588653584
-0.06807579077864566
0.04975446063883156
-0.03198921061944858
-0.030552149251132796
0.038678536422790094
0.03002617548770379
-0.039781743849429174
0.0004683044463989477
0.1017112759954232
0.07355238451958931
0.02995154561044441
0.008129972688314151
-0.028858448053908567
-0.03949427926970177
-0.060506854344715234
-0.011397858270599248
0.08606921757846614
0.04470344416100258
0.043832033532938214
0.020942913543648828
0.04692112289065125
0.007809102517466592
0.049774384759098705
-0.025027328399887402
-0.011766730967685173
-0.02299782105072636
0.03148539135612282
0.01584979564921087
-0.004393915393974974
0.05530418948872763
-0.036765615068572594
-0.02596371355190684
0.012586908989418928
-0.04660048574124619
-0.07228585327486409
-0.02171669856269845
0.0748748290449944
-0.039490849724545266
-0.09452348107439115
-0.009478734088051659
0.03639404689326966
0.05086734631104253
0.0354173503633033
-0.04545665903588031
0.03641500094552885
-0.07251755070666864
-0.021695141674827115
-0.08999674361934507
-0.006345371829415062
-0.06454148091660326
0.026028343003626744
-0.04665759641431791
0.06522885381343689
-0.028398311004534466
-0.013130776845022729
0.02863784822713064
-0.03602526307449062
0.039516271478867666
7.74515175752079e-05
0.03909149621861455
0.014736369131081171
0.07021771602579074
0.05075599566687984
0.07064277413376473
0.5655764509282756
0.9234963335496366
0.4760289474904553
0.10808675519670886
0.04720677660962836
0.04571232202629724
0.02121693098824824
-0.04693713531658189
0.08893461270019626
-0.00034163846811175656
0.024192344006064192
0.03913715526784721
0.029117698207328825
0.0401613956758014
-0.02190654212699471
-0.017684629911531087
0.0473940127010639
0.017941342257942496
-0.05789701835996826
-0.041578134752010616
-0.006222769493928283
0.06223933262887307
0.0712197980826493
0.01814439707714535
0.041910817663802793
-0.06761291346245794
0.006565183810831899
-0.0013732475157503846
-0.06691829033135699
-0.015661598298183508
0.041767424916701226
0.06694497092164518
-0.008207742739736984
0.0480413205569857
-0.006669331226979338
0.034738466717493297
0.048522930276203996
-0.022159657157552234
-0.011115961167887092
-0.02562014166284491
-0.06373594742157328
0.13757564916770207
0.04181513161267468
-0.08048435031070307
0.03391615305725108
-0.033611261230225814
0.07619625190268359
0.019867217820303373
0.015430437190635655
0.09130257258551751
0.04226783696710846
-0.06325447349139707
0.013889176841175188
0.04283506131904537
-0.025184815116094356
-0.07460485807383875
-0.03367991941889656
0.04975482905080808
-0.02401052170812228
0.020966292212740125
-0.0725516221548413
-0.00934706888335147
0.015278877435569646
-0.015995449871180144
0.11843960914064862
0.012159578299436785
0.0008859974122914354
-0.024775652983299673
-0.0020873501127129735
0.05543629246173243
0.10404841173822497
-0.04954918367467822
-0.027128241343087396
0.016614909114335597
0.026240325719210818
0.047029128312074155
0.03371608659878255
0.031669983384015166
-0.060104212585302234
-0.018430906750442923
0.05542485883896833
0.0353072835543625
0.032737448995521314
-0.024917499387793373
0.060384969698501816
-0.11981249027414614
-0.07023095938278412
-0.11637418182485199
0.019050955147354002
-0.005656410696625858
0.008613252513980067
0.0011352826513870385
-0.02021137991194724
-0.08760112666149777
0.018023970760171506
-0.07232841353262277
-0.03263500332722151
-0.007505590159766946
-0.06050728649248937
0.0386860653407683
-0.00404289990197853
0.015278575623193619
0.010906958534627307
-0.1331207164986322
-0.045322233164082536
0.019546564993809044
-0.04005274294217853
0.018669116458908428
-0.011493660805680588
-0.04150074080489024
-0.020844858341533
-0.004310607054423258
-0.03151064016898358
0.07517460633182886
-0.04101916410590906
0.042035142246656554
0.022249847102805323
0.028844256765700033
-0.05925743708930852
0.004480452426131024
-0.0018643790056869954
0.09683872262598621
-0.022953556948376475
-0.005656191374057547
-0.03747757408045711
0.005667402371795926
0.03304408268915078
0.07494416130605468
-0.04381412386727077
-0.00956743503521908
0.06327428146206594
-0.07077564250414244
0.07354197902254865
0.04664866331069204
-0.007451380529856705
0.048969334723855486
-0.011272376694767133
0.013916721910520595
-0.09874902041343288
-0.014628700037501913
-0.05384688639871537
-0.01471384319457082
-0.016946761492124172
-0.07386994654848418
0.05771528280802607
0.11726634556248601
-0.06551558090746587
-0.001467258483471317
0.07498841258366688
0.045314075486364264
0.056877733297230997
-0.030525757644143354
0.020668230694451454
0.008053183664418507
-0.026997280594748853
-0.004123555641947514
0.04188184295960048
0.006683776845584595
-0.025250273333573388
-0.08114652010141044
-0.055128068366073285
0.04147150956302991
-0.004778658333604362
0.024352131627027464
0.06522269978032239
0.037609252815887284
-0.049613473206380966
-0.07973654360866518
0.07859320720406641
0.0901356013331059
0.015068536805962086
0.01880726491261989
-0.03510622878875681
0.03593829943443281
-0.03315561459345848
-0.06800427596424499
0.02499893843020753
0.03324870751811145
0.022974435483508457
-0.030911768138320007
-0.04781632172087728
0.060549189516146046
-0.017637319618011956
-0.05865521843803041
0.0025836998383725607
0.028478847244351818
0.06663964694580836
-0.02842698723022969
0.0564067275507691
-0.0006543843148550413
-0.010334361785536594
0.02102919670307837
0.018814358119618138
0.017281195302008567
-0.014741658192419703
0.022425929031172964
0.0764751329116544
0.06425657859306401
0.03592344205963499
0.3961303630550711
0.9361891197170716
0.49136812802308133
0.09842120653105645
0.004083669864437144
0.06162458577689456
0.04272235996489909
0.005298188545502007
0.0038524287214865924
-0.05465011925027964
-0.014522423238074365
-0.016645481713885163
0.05875362773308135
-0.07251558966842743
0.07149160663954386
0.03201267714492348
-0.0014137483943585786
0.021767868641888885
0.024246533565736302
0.04190370029583115
-0.05168002061025459
-0.052545530503952276
0.0009748043422688398
-0.005679417607718763
0.04989309018052696
0.021474407169102344
-0.024167307127567917
-0.03628735137416774
-0.05721512399757707
-0.06557103297072715
-0.004457315662814195
0.019124722601716968
-0.015962583947557285
-0.02371751020052589
-0.0022265875494129534
-0.052664858535206374
0.04365214399853882
0.013049269561370544
0.09484519227825908
-0.010443869580398085
0.08695602390569156
-0.01279733517211476
-0.027667129795623142
0.1009682409908131
0.04558579978215368
0.13586555897932812
-0.1082003439260742
0.02242599236516446
0.015977232347132022
0.027896864085249815
-0.05402321553785027
0.0094621373102267
0.07123706161170522
0.08683022614793767
0.025207794466710343
0.017439577953848425
-0.017723198511679
0.05285949946132365
-0.006787940855104738
0.0318365650945142
0.05075914904484098
0.018190554270085698
-0.006406177761479899
-0.06982703847554332
-0.022780553827188695
0.0229378026029414
-0.008967406153795992
-0.06570337745389651
-0.04923874383766044
-0.054142624867105076
-0.08822103866515892
0.022922382091518565
0.005251794456874579
0.109172541930114
-0.003400329410896373
0.02588839299045599
0.018596271195844
0.06623102306339333
-0.05739858360159433
-0.056709236015559855
-0.018593799432955357
-0.07218661082506811
-0.014849838105027305
-0.033805232777567355
-0.02794826844819956
-0.05252375446757212
0.027462948432151742
0.004647091800827743
0.0650235485298442
-0.03411124776717973
0.008905913495345126
0.0021891322476324995
-0.0298575551868388
0.016927761407443828
-0.04234692159257645
-0.01908630454254259
-0.06238115099849648
-0.018586956551948294
-0.0843404093638681
-0.02557493029280767
-0.014782608520131947
0.013193932841352469
0.04023811217605615
-0.06393900247168655
0.10676214385699374
-0.028639818655027596
0.0874718559554787
-0.07277244101818567
-0.037267694285137744
0.1031392851402539
-0.03865955538512868
0.046525947958165614
0.022364213504627452
0.06773813697174341
-0.028632193308411248
-0.002827789054107632
0.02107287150335029
0.09229976299340142
-0.0006205345493108915
-0.036138086680468515
0.10804363202618966
0.04319933593625762
-0.07916061580990806
0.002828676582566174
0.005078344954171896
-0.028981708259839006
-0.034114489337912064
-0.03947575035275818
0.05220425827763288
-0.011745583282449554
-0.0022105963692266323
-0.017906249003017644
0.005435937142625639
-0.046001804717055166
