ecg
0.04903545667126451
0.014660766680855872
-0.10945218932006993
-0.0633604001513321
0.005364540636679639
0.07760770266305272
-0.11737696110284031
-0.07426674838281297
-0.048839405106447825
-0.09239791201037457
0.013654429442854693
-0.021870216285507015
0.05867583955998532
-0.06586299400673754
-0.057802922271328085
0.0003154742672176039
0.06420093730635601
-0.02657472918633389
0.0764129381727523
0.034629595933644716
-0.002582640970903855
-0.11319285261399342
-0.004079686957764717
-0.04335501906966438
0.007939884971359001
0.05521353289674999
0.006347036288339124
-0.022911336728858173
0.008754463364133516
-0.012605827737623768
-0.055863896310489186
-0.04550175759747596
-0.02417719289125424
0.04510900828095249
0.07686075364167672
0.06411659168998395
0.06988338503054768
-0.06174715529609059
0.07767245127568037
-0.0053649818276578064
-0.012283986506328759
0.035461776454792475
-0.0416250342944371
-0.02436126533266507
-0.038487158575301154
0.014146115310621344
-0.010170364446421436
-0.016514015444144686
-0.0874265337658086
0.027737676689589354
0.020271867232086425
0.009071282661696397
-0.020131909095467207
0.08433666405228207
-0.08496441023276455
0.005042228191041726
0.009211997725265899
-0.06179095454406232
0.00598901949133425
-0.017604596533080552
0.010839938008228089
0.037731758869900094
0.0491639051531092
0.020873975447030964
-0.024054329102688024
0.072289937418883
-0.05086214966043551
-0.016795058481590967
6.194172621708428e-05
0.04500688214271087
0.04858985758221204
-0.017602992848166032
0.029958042129923486
-0.002739633367048205
-0.014393730597028441
0.07204484647071456
0.025411873974853217
0.10533985091832353
0.06250499959264592
-0.003879218783991765
-0.0034280108605565436
0.06576594907724809
-0.020951087457616563
0.019262142134661903
-0.03346459968318926
0.0632970822216946
0.037668507231618714
0.08857346491390648
-0.039256127001000674
-0.0768211765267767
-0.04125445064127578
0.064705149220509
4.421965027557759e-06
0.0034101187379146354
0.14673089248947618
-0.008436883157867376
0.08258085305934855
-0.02173766913735937
-0.05209848042402676
-0.005789815977573779
0.06135137112464759
-0.03493333497739078
-0.0406304550188481
-0.009997233704020937
0.050195344508527834
-0.021439728862358717
0.014871266443224852
0.04903162917902331
-0.026819175903525214
0.012138063371702285
0.01627939782054215
0.04427699099266357
0.029023792915575088
0.03264723709860346
-0.0023069800159566355
-0.015623770783175093
0.07022138017370065
-0.036883613538418084
-0.006090848590235365
-0.030413595163561638
-0.025287224863788427
0.09522101533560119
-0.16899046974929532
-0.05811018093258492
0.011161028444668947
0.03791284479130408
0.04503217547210508
0.009932471964318283
-0.0211952682966213
-0.06541560246085193
0.026772622650934316
0.021252066279418825
-0.0007092191279481569
-0.0173904245805817
0.01460368872992825
0.08058941019839033
0.045183456810560144
0.00032178441818484524
-0.014064769095149272
-0.06582597879190921
0.04266699264046697
-0.02795175242081433
-0.029472461157274484
-0.04660622531043729
0.025611512517393173
0.05211985767930077
0.012528743626456375
-0.048691259630362575
0.02548312778472188
-0.0864594832922933
-0.040026456869196585
0.04493547967485889
-0.002488375968490596
-0.030562497390524825
-0.03914910619322606
0.14784286379228978
0.51690551095359
1.0949789959484448
0.46961485849637596
0.11781297224495771
0.036302440645346344
0.004148545407719763
-0.13188446243471422
-0.02169378942935714
-0.032707686450346364
0.03744403979205441
0.012547616113405914
0.07435122150831874
-0.029611440414116355
-0.04789995510633206
0.03332642930050594
0.015689176561777915
-0.0903409582108153
-0.04584197881124677
-0.0011410220152892213
0.026994622726397466
0.08687650199859935
0.10923375580244124
0.03831675974920085
-0.042951599613971304
0.030136216542695656
-0.04386764485703195
-0.004506871360755926
0.00544833364271137
-0.06024412575557029
0.02227284423640592
-0.03047472553101598
-0.06353808017015043
-0.02900729792135369
-0.025229127225924443
0.018432638595999834
-0.011734287044072674
-0.09212459077506938
0.014804032501552825
-0.01833224712300943
-0.02461584048444237
-0.0867092617947375
-0.01272319657735855
-0.07014867730806428
-0.04674011291923146
0.03418143467016735
0.06085264986284727
0.029184197162201234
0.06598109795777445
0.026938705032245682
-0.0011942670277865508
0.009602287796113128
0.07767677198503063
0.00401208473525636
0.034114821012368235
-0.038782601700233815
-0.0018603483933042942
-0.0006304252658449901
0.03429512361920059
-0.006395389757248743
-0.0016524627967071303
0.005563490129510998
0.0684310626182125
0.028707270324590146
-0.061916640543756674
0.0734826727689749
0.02516910107243052
-0.026752481155990084
-0.02861879698314589
0.0695911268464425
0.04451781666693114
-0.007910593129233904
0.00719703331756141
0.047064924179689965
-0.001245512801760677
-0.012892489266193378
0.020366228526084076
0.02402845794249331
0.01805011561248374
0.005141881901026687
0.02985624974232245
-0.03505938414386641
0.003183778228505982
-0.05021944141940169
0.0037186375179119645
-0.012928394415948577
0.04174069598819435
0.0397133737396163
0.017813307855754617
0.01655297756697928
-0.048077911596125844
0.07573795582555742
0.08757883741429968
0.020931600926403313
0.082286957752225
0.030867907644846673
0.01872081231211557
0.09100266437070514
0.0765626831675149
0.041522574342102714
0.05662905821545816
0.005382139017488265
0.03898627335572438
0.02358266008729223
-0.01570569335948233
0.021602298121337404
0.030697567739946165
0.04467579456014554
-0.023820723153891835
0.0488988874885829
-0.016540422154292033
-0.07596107644655725
-0.04385016242586287
-0.016312422323389943
9.371601320157612e-06
0.014670617612428109
0.035709600491958364
-0.011681825259617843
0.04139165532761144
-0.00453884556109391
-0.005704169046425645
0.05189364156322712
0.09506066883153692
-0.009512400046622096
0.009866469468458105
-0.046985724999977864
-0.0244937131050538
0.020144753364401427
0.08083754951421301
0.043345714250526204
-0.09351028825185353
-0.011324530701860886
0.04973249874024391
0.009387805086237697
0.015084797023190329
-0.044675881338896856
-0.07608114213665262
0.006292649342393127
-0.06467060825255848
3.628930575662698e-05
-0.023878374673928143
-0.06727663677426142
0.07713489784119786
0.040902942432906916
-0.0021480953792863793
0.03746735335821627
0.04214706270500168
0.057063559727537766
0.00891065869412018
0.017110109556346093
-0.08109572298178962
0.018315828435452586
0.03209549343479533
-0.05352578639294242
-0.06289833992196649
0.056129147071665636
0.031402127867159534
0.011071056166926246
0.0211900798859419
0.122355291429756
0.5470637106666874
0.9323120435962717
0.5658961797885118
0.012712371214671073
0.06514081064198193
-0.045800386384079156
0.004219607794394429
-0.04091984102490501
-0.08554816878844028
0.09748847513227227
0.009235894448210302
0.0121332032133716
0.013047911404108443
-0.011047170637033291
-0.07307132891697746
7.27868640702735e-05
0.028773843306837174
-0.05408446533759399
0.0335891165840694
-0.08598798787484334
-0.013394027075352012
-0.02367722949085232
0.012094771592366424
0.013151101758168922
-0.03349449325088815
0.021285868715191954
0.0058136387601982935
0.07361920604396395
0.01172107425663758
-0.051440142521765056
0.09059810751015708
0.015025092860917437
-0.01987165618646713
-0.00629789366632549
0.01158003378121683
-0.01820810512415565
-0.013674163550242355
-0.015635268534251144
0.00127360539243046
-0.062492051670719806
0.10199903411813445
-0.10808508134412201
-0.07510216252785479
0.0013638315420825798
-0.05644657706028026
-0.0957608033655788
0.02246618908198826
0.019508099607538697
-0.01992507208860461
0.002444999573429491
0.012166337767179269
-0.027378487320960945
0.09792955065295834
0.028180749859236687
-0.04248210986318428
0.030084157912980206
-0.030054709019652404
0.0655636265486701
-0.033147166815386
-0.032511495503917104
-0.04889039564300163
0.024756766514393472
-0.04945896337719466
0.03271495324362477
0.03660040590810742
0.019284294191670874
0.040269902180040756
-0.06982281936900366
0.07635092486118172
0.020036451583847488
0.018253421925620614
-0.020921846213239614
-0.0416799996776969
0.032472727392835465
-0.06629879431695038
0.003866954782251757
0.09852929470121154
-0.015861602189822466
-0.00851872505485936
-0.05710579836399557
-0.019246366177506673
-0.013529758505078036
0.06338491186563204
-0.05202939956621094
0.0069674946370938025
0.012256040645118904
0.08294022692866582
0.048071859618499455
-0.029864256486588164
0.02792527746295037
-0.07910781581564184
-0.15682985486023973
-0.11198515104437352
-0.06064197290736907
0.0476164959861472
-0.014049405385900446
0.04604608941459894
0.030274941953798148
0.08578147961416796
-0.02400982260227321
0.12644766707537355
0.04060962745183902
-0.08048591748342054
-0.00815289152286307
-0.0988145026776042
0.02190952721675469
0.04611812179770286
0.02141799999148712
0.056606362776642716
-0.02932830222912554
-0.04476137658981308
-0.036140916325952226
-0.02648942092062863
-0.012376826539592151
0.013049310589529454
0.047890028329691525
-0.013038772272196823
-0.015773397955865857
-0.0003852766703660322
0.07153630446013062
-0.03154249057972205
-0.016249756911162358
0.025445265798999406
-0.002972752151968167
-0.006265493304448759
0.028033433731823282
0.12224511238078782
-0.08585996016398778
-0.13415800933939448
-0.04013061721554617
0.00732037662598798
0.06733328450309932
0.04441737636108933
-0.029423452840751103
-0.051825167698911025
-0.016827528763892954
0.0012065517169680055
-0.07646462159438233
0.001035399065548943
-0.0023623796334870614
-0.10930388006326855
0.01060678975189625
-0.018243408755269353
0.009072183480050266
-0.03003504247965156
-0.06527326528722152
0.007802517832492914
0.022733110446560335
-0.08058680681925734
-0.031439472034682364
0.13198432727997042
-0.004825766386771264
0.13329591434243035
0.5103139833704611
1.0168681189506448
0.4705579814677278
0.09936362811623754
0.03251765562689449
0.010483923557241611
0.09125494815446199
-0.042698876226672955
0.023436036758071068
-0.010734468603566293
-0.01852682875971249
-0.08749656764310312
0.03179982780747908
-0.004970651847906093
-0.031987437222733235
0.03680294192647953
0.06399569485381093
0.02858971280101374
-0.025583994032944497
0.020333243398590772
-0.029027298476649633
0.10770083365961375
-0.030006271677183206
0.03926494687016882
0.04388736127898846
-0.041301483357266675
-0.016394371031550007
-0.017061164213190365
-0.026654267540182727
0.03793117448130293
-0.055838461696702625
0.021896954296794433
-0.01590890592753291
0.006841920556887722
-0.09242457945568772
-0.0032131775276344025
0.011271482444456637
-0.07862208549404835
0.03244134688278443
-0.10242425704536251
0.02198120369193101
0.01745116595307405
-0.05120062426073975
-0.057004039879347074
0.030986455103339118
0.026534041718911713
0.05563448612132817
0.00553657308104559
0.04186290542749405
0.015893460986671715
0.005314477462067239
-0.06898235070780065
-0.026399420258039343
0.017403342034885808
0.053195449152793645
0.05882370242679322
0.03112099556422303
-0.04039709789630771
-0.054571926121915776
0.05937314314915694
-0.05094351365037062
-0.09026079622690708
-0.04812853310842732
0.04794866519956256
0.022713951170964697
0.10880879185244888
-0.023869957135700864
0.07769997168125442
0.014271312046923274
-0.02308558017699328
-0.05907861662436377
-0.026997309299551908
-0.07124012036524792
0.011579811361871563
0.0418408909721778
-0.0005573607808675382
-0.028270817550516913
-0.06489035077175298
-0.014927823990127237
0.03324111862353682
0.005866964816813139
0.005892646796252968
-0.06168875869821179
-0.005313341962995818
0.03505153792749821
0.005823344014027276
0.04933073391208556
-0.04518023678135774
-0.06479495858729532
0.004384369314132826
-0.09065954712169835
0.06295955971867559
0.019849638636255065
0.005842059904390028
0.05803399427948435
-0.04734370023714319
-0.013858326361921606
0.006080159468840223
-0.03244047830467795
-0.05334313729970011
0.004060237005335335
-0.026151119439246404
-0.019951380356157414
0.13498783504024223
-0.02381922076815011
0.09522573799096981
0.09609287902358553
0.03685175459404793
-0.05005593024109874
-0.062350241501295825
-0.04167437610286053
0.0434882008181158
-0.04583102568934305
0.031479914546116435
0.012588221607329312
-0.02253158920144407
0.0004471271590762595
-0.011670085122459442
-0.006407082260479312
0.039865865146789435
-0.03216565176700848
0.013455275417503083
0.05278369548153075
-0.05743743066743815
0.07052988745632699
0.018214357652762875
-0.03606798438534969
-0.1134713422745719
-0.012727057873212181
-0.036859008238237005
-0.013830356734697308
0.021151889520118886
-0.008557994018641728
0.05005730417354451
5.175869401623461e-05
-0.027664658781487213
0.1303877598145513
-0.0762088989123614
-0.04956369488563758
-0.06151909362042345
0.025165130191496778
-0.008999868728342736
0.003394743138835934
-0.10033203628446535
-0.05977235879188371
0.004556168227878361
0.000518971913431881
0.03191060288673921
0.08908666383749503
0.030015018643274417
0.008338761767601774
-0.03110592336048465
-0.07689204947189524
-0.0776805612284799
-0.07539223636316633
0.026744406016872946
-0.06779498784341699
-0.10833015577707339
0.011183547848752515
0.08516258414484862
0.5280138989194153
0.9058140674704638
0.5357836551149143
0.08668242698371531
-0.007651728355295696
-0.06962199674637293
-0.0789295694764934
-0.0045145240235114435
-0.03263923991175322
0.07751385115690097
-0.009591489189871715
-0.007282033987176653
-0.11744438480576068
-0.048260414732898334
0.029427224465709084
0.05093721581380209
0.0331502259880334
0.01367991750919851
-0.014772032656365086
-0.10961635842525995
0.04359660227813174
-0.03239534876580955
0.08000527433457516
-0.03419737492281478
-0.07275502575436253
-0.01777591070029128
0.0023234915720646765
0.027995219697233804
-0.06784229735578985
0.021990271863127506
-0.05999456394354993
0.06149164500279933
0.001553871434194257
-0.04527284579907937
0.0012298384766104243
0.022647526979106096
-0.0879906380232357
-0.0068360809036463735
0.017800874170473553
0.08747233316285306
0.021062228209887523
0.07083481706118909
0.07076799459172856
-0.08117682120434644
0.0230342310949705
0.04375146548318539
-0.02203883226357037
-0.07396802163305209
-0.01020375428951343
-0.0002802134696254012
-0.03696163758870815
-0.039377386789210045
-0.030469728998064778
0.0506701101333397
0.0017550128918151096
0.062225219202127174
-0.04657904412432872
0.02720734778305512
-0.06958041369379993
0.04874008307772554
-0.02670112692284848
-0.032767554525345376
0.03205039104141112
0.013349315811601859
-0.006598154231124315
0.026298335217942604
-0.0034834443903020078
-0.016319339062661847
0.014288783141517408
0.008749188263046622
-0.03546674510664255
0.014420433395378794
-0.04270334565846245
-0.03772049130758012
0.017509996108461823
0.029683661862422966
0.00799997469124893
0.042703235072568416
0.035566041516946714
0.027412105524792243
0.011662210025608272
-0.09306019213368383
-0.053514520955273454
0.05647098996405924
0.011979798368367541
0.01016310503863874
-0.15658028506480492
0.05571374729815925
-0.016885343585072075
-0.0065847414298802545
-0.022921080316088253
-0.0008387641464184135
0.006643030574018195
-0.023446451647930123
0.04267714678567416
-0.031065031465359872
0.05527327848206598
-0.009756462085828099
-0.013410542048329777
-0.07313169331083386
0.003086892733491396
-0.03074400948669123
0.023472098333862306
-0.0475496207984999
0.12571740008798776
0.00717133424193327
-0.03955111305301899
0.03674369148685231
-0.06716318971096459
0.07482727431885748
0.027410577347906924
0.03144017890082093
-0.021567174884102643
-0.05661741595252674
-0.06445135290592892
-0.002213506088932255
0.03385114189754677
0.014019574766425581
0.0025192683731051976
0.09782046991100168
-0.037988065926507074
0.022445744885114003
-0.02044095214133547
0.04941837872477865
-0.07987369902372868
0.047363128586131883
-0.011421960745049788
0.02507676535243423
-0.061068186360155347
-0.003231069851337123
0.008962803486435817
-0.029174859442867015
0.004201612821339867
0.05130885139420106
-0.044595878360142616
-0.018866066129461248
-0.0016775331761603722
-0.021849256820532036
-0.033737045669416106
-0.011648977500042927
-0.0245554023714184
-0.08020282013668191
-0.09728338262540111
-0.09783457335846292
-0.0046141433227296046
-0.036286598615921796
0.024242558609099664
-0.10230680711144705
0.018049077495095166
-0.06545845056762169
-0.030721297335374827
-0.09406745397907788
0.002478720276408761
0.01929510282318521
0.0223601510506213
0.08142877750096643
0.5572263800136048
0.9900943319541086
0.5524676841240499
0.13232626519624124
-0.03254967789056762
-0.0130957555216287
-0.07799473523897449
-0.014284074004520031
-0.08345478437752572
0.02135724620614139
0.0072065145942056905
0.009066426337566885
-0.03692062733379989
-0.02694289003979469
-0.03319641300085211
0.06395899453680486
-0.02092518958322717
0.02168181954095932
-0.0027673108358441064
-0.10832160528441713
0.05655187886662486
-0.06376666232447559
-0.02681577813408393
-0.01751863887613156
0.05389669089495602
0.01777192579271981
-0.022203419592233375
0.006137182248339703
-0.005385398043947485
-0.011471183053731121
0.07690220854690549
-0.0567696747576619
-0.10209654599484148
-0.03475708120939038
0.02003860581244382
-0.023437235329518556
-0.010957323138104028
0.03897413327086517
0.04031994323946068
0.03021011779425737
-0.03962762757250225
-0.010902440294200432
-0.028830062552503477
0.04852137959686289
0.033804845343975154
-0.04745285792549736
-0.01765092196966012
-0.06430233909522479
0.025510649861833164
0.027054899735703505
0.06070952437760921
0.04174083005655481
-0.03234018891870185
-0.003345560921508467
-0.015375042082523547
0.056118569195192536
0.04304144959033099
0.02161483272120491
-0.08797971488264568
0.02786286806913485
0.02468110211342289
-0.034058725034357945
0.08570443610129629
0.06346510192761987
-0.06464623624575931
-0.018931780744236026
0.012647714927874802
0.046391406562880697
0.034915852377598186
0.06268007817001134
0.023244761400825115
0.041629249549423125
-0.02516538784435839
-0.01471624073205642
-0.13069975946963608
-0.04875753915145589
-0.09344336566504159
0.03187008198158963
0.04474175177853043
-0.06818865711050609
-0.07386339847352962
-0.051684029602904726
-0.0351683410416746
0.09377534668278416
-0.1315903649023391
-0.03749518178961772
-0.02057424611486275
0.0378579123404483
-0.025565581551190014
0.06979921044842312
-0.03208239429124136
-0.013257230312141963
-0.04789204781870641
-0.06384506854980153
-0.024885761340379852
-0.04450553619344694
0.01603257913033036
0.031923505296097415
0.04313462332265393
0.01567281394096512
0.06078434464385044
-0.06253851385628617
0.01381616055198194
0.12318475498212961
-0.0458682052254382
-0.05397533114634689
-0.011752796242246476
-0.07286194314539444
-0.04459001471499177
0.017562560743544817
-0.034762425459597526
0.02151179594626924
0.04544805115171473
0.05422701131096133
-0.03745356145491265
0.03510409793990326
-0.018625935273303206
0.019623534800626084
0.0028063530021764874
0.025115750928460454
0.04284876752994628
-0.034471347703083056
-0.037890372246409586
0.08161318526840082
0.015371533583131156
0.009141303738099646
0.007803711338465479
0.0175749845537556
0.03916326657097415
-0.015289216528340225
0.02431914214066623
0.030631516698990908
-0.04083905108024673
-0.024332973294760817
0.0024948733085834035
0.07429308554937893
-0.08462159309336773
0.03949875715957562
0.04187409656465027
0.03580828731128621
0.08055819544650478
0.052191673601859
0.09470205670648216
-0.09761969154077799
0.010858078727320288
-0.007997330545488854
0.03779931774260385
0.025996490240857973
-0.044799274369168564
0.04883304259450027
0.10199764818202649
0.0008645065239744328
0.026597476429324925
-0.0439164315662891
0.058406591876927684
0.008166539807183393
0.002524874790936708
0.06321906095620727
0.13886824744955367
0.46169120386282747
0.9720626522484939
0.5536686108827603
0.11543177817471863
-0.04428085240223176
-0.03158339426937073
-0.009515283045096941
-0.047449066345472767
0.01385484471498829
0.06816848338301285
0.010019490647833055
0.023475630323790103
0.007168879771932768
-0.056213250622748324
0.04884315611524476
0.04376006903045996
-0.06574167354574947
-0.04956091297860541
0.06265654713034294
0.09630562506666981
0.03331802993216535
0.0019861503710628123
-0.007779371853403862
-0.037087488231226005
-0.020752388543755405
-0.03691368889947861
-0.003444296157594737
0.05987799904370481
-0.009587189380225727
0.020723526256707772
0.021940582904048014
-0.06499123568014226
0.128942042437875
-0.03956117242091149
0.13562277893194205
-0.06818937172853799
-0.022528469792567098
-0.0668579202798857
0.00661185102577122
-0.05225730871922857
-0.035409316573970236
-0.010601497991790393
-0.057031715081678196
-0.06995835609547872
0.006987690831724157
-0.02942562352797224
0.08206695065646638
-0.020374345339834135
-0.02516088757462706
0.07293878166457761
0.042918388749593986
0.03693335159070086
0.02295212212155186
-0.05498857749281108
-0.03346308997215791
-0.03977214291315226
-0.02067657713183973
-0.13445264540103108
-0.024152215436374067
0.0826239169123987
0.033914608172840914
-0.013372331075274186
0.03141551911475385
0.04088525031513367
-0.03719924674530547
0.032334475423697044
-0.08632117011993469
-0.002279544190021493
0.06196907776463191
0.05154553620996331
0.04603230065670392
-0.02707025822542962
0.050068384690048734
0.0007135478876541839
-0.08031658424741181
0.07521163742796527
-0.036895175595450094
-0.025172022958449676
0.04516929590199051
0.03231967073405312
0.09668481994838221
-0.007262952641739128
0.08972613156086294
-0.020023682158986554
0.0339144761254398
-0.04942550840384225
-0.0574713055292643
0.017726476448080487
-0.04025884094379486
-0.0437241469604884
-0.04619368594472628
0.05689651778642202
0.008045140402336332
-0.019739661158716705
-0.06810203277119257
0.024125476083749143
-0.0012513165233243107
-0.0072846203763925884
0.009516305471413933
0.0004551110835665994
-0.014259323696849582
-0.018133634253953774
-0.07857059890695219
-0.0839169475539653
-0.01759319417052205
-0.024088202829349602
-0.04549842975042387
-0.03742259879694484
-0.03423588167590487
-0.05906880503195836
0.028318724892416654
-0.008994148174657835
-0.0071852496952698065
0.023521218171298854
-0.11881209656071018
0.06658183905985283
-0.018461163064873217
-0.00081740816269807
-0.09413536775768509
-0.024243482037361708
0.037652075160339006
-0.004696788558193416
-0.009452715005682795
-0.05452558865497632
0.006279945964062653
-0.005110534690978074
0.030699299011634464
0.031253465404318594
0.05062889132226293
-0.004265425309701279
0.04660017306192
-0.01716771724250805
-0.010830077955288822
0.028113025951085155
0.06699035304930416
-0.0075721216611213844
0.015047750506443996
-0.022096575233970572
-0.01219077945518885
0.06737099788107212
-0.009363307893103625
0.040928450080039126
-0.09572683276632654
0.010842809361292727
-0.0714683306980449
0.019317935774614544
-0.06334601951752537
-0.004368101985477937
-0.01795721156476626
0.07909321445553982
0.0229688352565312
0.09008096071360244
0.5312063220731397
1.0088379040495938
0.5908547855510031
0.021051551311877886
-0.0017918646846489
0.038103061462275524
0.08146704895429015
0.009935163001977792
0.006697787402044297
-0.08595009903213917
0.04146103511212474
0.015692833245305567
0.0316306010424882
0.11611110168502901
-0.01726473465833867
-0.04842607961189488
-0.06364635964105328
0.04935422705665082
0.026746506845305135
-0.03692059943271014
-0.039957850804345225
0.02017902067293811
-0.09543983848747983
0.03925981408498517
-0.09416697338526114
-0.009996220116572597
-0.016298302301513485
-0.038401940260733396
-0.0419316090843614
0.04278265605384493
-0.04181399817101593
-0.00016161705854957024
0.04332722842508518
0.05753756197711888
-0.11529196253129836
0.06909916037349982
0.089675533938191
-0.01263294690783811
-0.04616308548941942
-0.04124226265677916
0.07571790687000193
-0.09799000340301801
0.05236300844509531
-0.03686491791337853
-0.0895177358364542
0.007778996853651256
-0.02790129777041536
-0.041990820908031024
-0.003157545982881772
0.11730295461132262
0.0011147218087992725
-0.03430154840177103
-0.030905326954259515
0.0740279709813386
-0.006312325603682187
-0.04669405661131856
0.039725180834714074
0.0031964414468351465
0.03846262795533057
0.04392682363996378
-0.10165202989614344
0.04408766216924286
-0.03091275181005669
-0.03134117126948246
-0.05259847325747244
0.024445080865921252
-0.06577908992385882
0.000505680878581383
0.039642051521318555
-0.011709710445252292
0.05640470932840696
-0.06322860759819486
0.054221442385083946
0.06692320990893771
0.1214618577128362
-0.0004745838277782243
-0.002829773661070817
0.046328274346806975
-0.03395898225313867
0.031002893141390528
0.050143754348157536
-0.09047666494902594
0.07843580924661807
0.014205072653068246
0.08090632110808385
-0.02410135436236821
-0.0050240326276135856
-0.010735612602537756
0.0063264765079691955
-0.042689808758710944
-0.013150369813831483
0.022657095125552796
0.006003813526029511
-0.08987091133892683
0.003152485546402696
-0.0027941171903660893
0.04932230479160582
-0.01557302440397055
0.0048245071094193
-0.008503729203049539
0.03166412375299189
0.0476496898448103
0.007523685545207321
0.019304586271674404
0.02454158875526257
0.013770993276433477
0.022063873296583065
0.03962710973435744
0.03347160623145042
-0.10556561938950469
0.0037708358800027223
-0.0481628891278726
-0.02277362206007886
-0.0015356731606283064
0.011446625380219101
0.02104468855493285
-0.04055715419107367
-0.07470319283036968
-0.05081323138017296
-0.0033728587726539042
0.03115382160849789
-0.09875475829530295
0.041893817281809395
-0.061387526256833094
-0.01754493929137473
0.12877882729485712
0.07394650301849946
0.008806439743238597
-0.025372278720105747
-0.003956129198640017
-0.0325965057953048
-0.014954569255715713
-0.0792228058972409
-0.022718154661817015
-0.09138408948102485
-0.11308949072601726
0.0343364910081797
-0.058870796949889816
-0.08771223521414462
-0.0041631070905422864
-0.027030614380939424
-0.0027708781513749448
-0.007565772657155398
-0.05504150952847278
0.02441071179115974
-0.002210594441457806
0.12008918289742039
0.03134492547887368
0.04074991094027373
0.006415634852380867
0.00863263000115493
0.06256676420853476
-0.021464868235305593
-0.09363990987376777
0.011663983987008885
-0.06886089434280868
-0.04124036425231944
0.17122405644018834
0.511876679136296
1.0101940989875753
0.5351505903426851
0.08634875343329729
0.0810028158048788
0.005657781052375618
-0.008299348047014961
-0.05012663364013381
-0.05086815359672386
0.0929232882719237
0.009262393495242133
0.04250691537667236
0.0962809612691249
-0.02314986539403782
0.1180125603912352
-0.022241432671620584
-0.028122191337165998
0.04115097306052793
-0.003405135175958345
0.06892698515933897
-0.036007883768625314
0.07501848185174677
-0.00931393987919997
-0.025208308506639077
-0.08199103183337199
-0.04434445013817896
0.0005303565786665111
-0.016445710003981474
-0.10364800919945819
0.0017510922862380579
0.038760567770834115
-0.014514369563003896
0.004728145353875494
-0.0884825770562015
-0.006768019887566365
-0.04441790519881893
-0.09151428900715297
-0.05646838853411164
0.10552376243207173
-0.014299055112613236
0.06966688756405888
0.06712327444063469
0.00890047559530152
0.05221491430978062
-0.008262195794015227
0.04641348496434701
-0.03129672771739075
0.04606627983125933
0.012093499576127247
0.06290528690178993
-0.05452929392649824
-0.02878660362676469
-0.044046184601031074
-0.06216530872117923
0.009908209125270457
0.03718335965114355
0.0323126721374729
0.07096138423932596
0.055078901732884794
-0.0312974500624964
-0.012600194570172599
0.08127098513010918
0.012366444629644244
0.007478405843055397
0.08973457683328878
0.09838881239106809
0.029026436136529634
-0.011784058484312302
-0.09104604816745909
-0.006319547098120203
0.07057213406546436
-0.02854275601258456
0.007064511040106436
-0.014876356623588168
0.011627760596144267
0.008438379191942326
-0.005130773259987922
-0.012866903698470673
-0.035506633993616005
-0.07209092092193396
-0.09888102299741769
-0.04491833176054027
-0.005692371768613376
0.08807521636559829
-0.028865167023788715
0.0015687911723358929
-0.0024148212795588727
-0.07475664600739017
-0.03169464321857685
0.019228310425605754
-0.08316060444661867
-0.05673774622157251
0.05274275901188348
0.018374328684452462
-0.05774490088612745
-0.06090648855946691
0.03349092177941994
-0.013094758571537343
0.04822124644459946
-0.04399873112318545
0.05357419429825642
0.033039524899552496
0.06031643215922036
0.06250051770884772
-0.0038039124587092793
0.032714414184348325
0.0573591286179722
0.04639080431717908
-0.027440762210645175
-0.01345606123935423
0.022291045139136944
0.10284374754302844
0.007835229155271501
0.06014964304982259
0.017236067606485505
0.014141347348620143
-0.016827940705357224
0.03636266418477154
0.03782944585369493
-0.018722187905504954
-0.03162014941623516
0.016972085517833992
0.014566569270928656
0.008542184546270341
-0.015028421935966381
0.047791433196784056
0.11418509989360204
0.05970629682366846
-0.012936433978512463
0.019454578397146136
0.06407110418546534
-0.06415543457068829
-0.0042088948996379235
0.02540961371275273
0.0015470931484760225
-0.028756094656039472
0.009409025524412681
0.0201581657775666
0.013916442241588415
-0.061786909653788774
0.004941163270771681
-0.0024421091983201533
0.06932431394947403
-0.035648778462763174
-0.06707729204199055
-0.09829997966257994
-0.02324174805979759
-0.05733927524844711
0.06522315166787673
-0.028268507152062212
0.0005246044618913256
0.033102047677339534
-0.06309828942189577
0.023387293743304595
-0.05544545796261683
0.00458061014788937
-0.017327671298650888
0.00665944492605691
0.07977638353022964
0.5260802374483055
1.0315421863070056
0.5577098140395272
0.164412361231355
0.1045617855018402
0.12163921212014138
0.0058099510721221275
0.006909057691294168
-0.07545529545348174
-0.11496721047394431
-0.06336792868247636
-0.014154486199977662
0.017926615766931258
-0.022299536390445
0.016021512151592164
0.022682427733205186
-0.047239145575094676
0.06479952884698345
-0.03395804935651785
0.012026289141812585
0.05703116295836899
-0.03233492757951233
0.05748606836519561
0.06840868467209259
0.014197595556551437
-0.03704258998802641
-0.0026118528763466524
0.038905904233661213
0.015616521734129005
-0.03173516619466681
0.057487435269341136
-0.05923280558973724
0.0009363745490395931
0.06607336967572149
-0.01895321071383528
0.05129461576935619
0.02159918830175351
-0.05417511953979173
-0.030220043278062398
0.06347185976079615
0.0026433409040018856
0.03187318872311865
0.04358897486549665
0.006971035379618403
-0.056436496260043115
0.023060937477004058
0.06993225533623383
0.015614070814343826
-0.09906937234698286
-0.020240075384441534
-0.03554596292623904
0.038340815536516436
-0.026181536739487272
-0.0467127321242245
0.021850785752670188
-0.018809220762541892
-0.03543234195481639
0.06432183576485175
0.03965525958432965
0.041620815197012044
-0.06662978769671409
-0.03959867101989789
-0.11056173604711649
-0.03405877486794588
0.04866589787398985
0.018269025361471417
0.08576856593616071
-0.015750192587598133
0.029284551698925094
-0.003986672458700296
-0.08182816291166958
-0.01968325710403572
-0.07412357540800267
0.08318505836025682
0.06846790444216708
-0.09553414535962862
-0.023042480917884897
-0.01077816932404013
-0.057466964370353715
-0.04529613360887544
0.03068791940791838
0.0010037237858806535
0.0372503391368794
-0.004051366878357543
-0.07680927833404559
-0.013676549774028225
0.08319411183769464
-0.001110502004549299
0.09307841419267146
-0.015264950888098032
-0.02108007012453593
0.05184840300020799
0.0010153617776703966
0.0017139596174493483
-0.060954047081679175
-0.017576177017076266
-0.002847281510950782
0.03056289362949642
-0.06653509646581368
0.02635627723378242
0.02011846665907044
-0.013444594657540172
-0.06156692501866195
0.0929172211267544
0.0812676701306103
0.04696369174151686
-0.08253079298098674
0.03262394626477285
-0.017448863500355377
0.06165612081476718
0.024400240723041235
-0.05706162581843961
-0.026159300378928437
0.05952180013175778
0.08020736890772706
0.06889819278264901
0.04085536130986931
-0.03463079128220559
-0.036578808416021624
0.04042772256314721
-0.03809711221254121
0.02435608149144439
0.032129871902322825
0.03788677362424579
-0.020103500236888415
0.06759972344462291
-0.08026990006198954
-0.03688448760794856
-0.048657531847196935
-0.01906720758292188
-0.052126241026406075
0.011421375839123482
0.048882062743481225
0.018210467401241544
0.06716885559671948
-0.014927000678372819
-0.10965760123630719
-0.019752179459206657
0.015011971535947728
-0.0473325321349154
-0.02731972918010586
-0.007443779987382312
-0.02073196913457586
-0.035684706584626295
-0.019011537487006184
-0.0024916090069656196
0.011338301974336343
0.018078072896694847
0.026888939744942567
0.0872040515148735
0.02359339474576076
0.04180901247951912
-0.022646911371518596
0.060696214214013576
0.47643288940360035
0.9738977256584944
0.46668503320878174
0.14603450557854364
0.08706342661833152
0.04832885232812956
-0.003255499340635032
0.06993506755926576
-0.07181055460724449
-0.015371736415432484
-0.008321789314633433
-0.026793643279341917
-0.014843543570350816
-0.037708056143557545
0.012394782880071611
-0.04163683022775964
-0.04116828575251151
0.07292555836517726
-0.0646704996382871
-0.024108009685577914
0.06645456758020109
-0.029488873011732575
-0.015362461115561214
0.044023186513678265
0.07403637958058193
-0.014984550541744752
0.007522806039324849
0.06300435812789582
0.07143177935265846
-0.014933991319356334
0.0013594651731741686
-0.005065961828422979
-0.014072801780182246
0.07375039270739243
0.03296709442510014
0.014514444790498019
0.028791408836809158
0.050149061901561744
-0.08299320215014833
0.02418570035270085
0.1260221602521175
0.054272476010654526
-0.04917186713055276
0.04157060756589002
-0.0455591546321637
0.07839001845841792
0.03133970741328504
0.039322317870696843
-0.019339170560305118
0.04931828887989755
0.035514208555293116
0.017350801365332374
-0.04795149390623592
-0.03469275606444812
0.0479024522069472
-0.00024434548721798946
-0.075308483014348
0.07138546996794165
-0.029806397958045412
0.031141066546309285
-0.021594687012853137
0.05646204940182442
0.015551572084403796
0.061365656325232235
0.0020831499925225185
0.024218871337380196
-0.009818393617361344
-0.04347752755371001
-0.06338711500798917
0.00314101220506279
-0.004573277700841331
-0.09075840409514267
0.009538008564004042
-0.023891009466526537
0.07048047481823949
0.05360265976834249
-0.021533724629900736
-0.03459732081841367
0.11184971228375468
0.004660431486161138
-0.05132091239619879
0.11857213649523167
0.054408678851992166
-0.022277490381853823
0.02238691183249279
-0.05100610173146648
-0.07951369107797956
-0.048810452119337155
-0.0010930719157169978
0.033987384695618184
0.03080596309188531
0.029848714151861955
0.04725433615299793
0.04696308990563258
-0.004985381954331073
-0.0316358144195262
0.01663791455860166
0.00791701674230228
-0.06082009450626559
0.0158100669794282
-0.00044630685728103234
-0.008105568314524704
-0.05594451417091825
0.04512035451971767
0.02342954555649774
0.020268978560760365
-0.05087795859976512
0.07021323129203597
0.02556218343701504
-0.04142553076263067
0.022677086777535646
0.025655608380467366
0.035307365225327625
-0.02965863828872208
0.12239926213335539
0.009403048599566206
-0.013647044433958772
0.006508436378714307
-0.026626298966657705
-0.03114876735489292
-0.00521154869542533
-0.08553931384024521
0.05620803813728847
0.030376056722670297
0.02774631352989711
0.025904797098474742
0.07513912426313885
-0.11952305860323725
0.07327973505319257
0.011605005679829465
0.08681742894552644
-0.07828853522878537
-0.000577304067037069
-0.035852044917043614
-0.006180379482339868
-0.009519983704595891
0.01576873278705605
-0.09471696970838013
-0.01998929138647877
-0.05139583262616394
-0.011136115681651989
-0.035503464274651224
-0.01095025688417203
-0.029300494657867795
0.017826976550869785
0.05804151671910995
0.023645941528444958
-0.08342743278768051
-0.00275227215315882
-0.09257092409246964
-0.00363316626287042
0.12103708125154011
-0.06050439067613309
-0.0332286491220435
-0.008951516130913675
0.045857065639315645
0.13864635217711038
0.39822424929196887
0.9881722884085955
0.5755651602887086
0.03391756786005974
0.015407964195993634
-0.047358605680142676
-0.05730148040504493
0.0410940508400659
0.08353558328368943
-0.01607800251161858
0.05257815226466779
-0.010247099175363913
0.05470568339630913
-0.030911405541688787
0.07010868062064123
0.055927297173168106
-0.09733010021735741
0.024043863453758654
0.03777231556841234
0.03498996598740747
-0.10682565993346163
0.013933259290303833
-0.03181486971165459
-0.04154242531000097
0.0006901102763589975
-0.04287423804646098
-0.11301117121376583
-0.05154197392992367
0.008716797245390573
0.08210005639197775
-0.023388946171452207
0.007464486437740484
0.03028873167575783
0.040750377811636485
-0.02986384568835871
-0.010277670945516253
-0.13623951609045248
0.02937657477560924
-0.08165994639995021
0.02681786320573787
-0.03919008209693112
0.03774672861560752
0.03405706917843227
-0.08627219803380715
0.008552949903650506
-0.058309620118468575
-0.0005895250226739455
0.03309006419705299
-0.021683848123298297
-0.09954668051157933
-0.12494867537209134
0.0028041148578202228
-0.033307870320383445
0.0011834882130996678
-0.07135485123593742
0.02403734375974848
-0.040441962319279615
0.023449613801385955
-0.0026128777661714123
0.08560206072418819
-0.018423822539801342
-0.08782779087617408
0.03616943761722121
0.046426905785881045
0.0001515662390402147
0.015662592034871678
-0.030002454709538474
0.04343231158764438
-0.03556838984186167
0.042485320981992265
0.00538094661417668
-0.050159653561947064
0.04898251904330184
0.05434744697655278
0.07682087234232603
0.07928699689739316
0.07750633044334929
-0.04128585119228165
0.04087128304056894
-0.000557783636398538
0.04538899797219748
-0.05726247096038122
-0.04463457206733823
0.037283847060366276
-0.026492190581158412
0.03725516882486529
0.09195495871485665
-0.04690382039639774
-0.03210791396488989
0.025984691757124596
0.009166827020471119
-0.01131680252668548
0.03468568439674405
0.022249938025608415
-0.006091469233705103
-0.06052632562411572
-0.02361826096403733
0.015766086051064724
0.03422341724721622
-0.020274669143075106
-0.0361024586119899
-0.028905560529267533
-0.013902100757430452
0.017345233898801483
-0.012384865711251731
0.06724840561292807
0.02390268677633379
0.09473908785648177
-0.017929921221938743
0.004371421481146046
0.008861896740449965
-0.011198225095978336
-0.010480591902108123
-0.04937640896120399
-0.013886733349354094
-0.009667043215870148
-0.09274639777933225
0.037344678752997594
0.04036034649249953
0.012692193004072986
-0.04023209759292296
-0.020266478922375323
-0.012511649657158307
-0.021382736074453457
0.07370345172914387
0.07664564260304674
-0.0462504637759308
-0.12440399203883744
0.045999268358733775
0.0492026315057508
0.06806301581464318
0.004945364702091433
-0.0019577240815318968
0.12952264913110403
0.032011788333571434
0.0016560893340625033
-0.026674881245479024
0.022046050509958316
0.005872151154253214
0.0012307955127523471
0.05401601462944264
0.023093319092137472
0.01608776510461492
0.010040899456254103
0.04617389760625292
0.016818672179128562
0.030870144451089272
-0.00791222113964281
-0.04019278075967875
-0.03871940242068195
-0.08108146619332937
0.013849596198749703
-0.012339981698431854
0.018952428235488407
0.13290677943524287
0.042200699029286866
0.02212896331246273
-0.01360476198437006
-0.021236302301358256
0.01193818040397981
0.15472033024537887
0.5590586102601419
0.9957216749093698
0.47470119874216155
0.1930671864540615
-0.000774391281264753
-0.06793513429611286
0.03399553718868749
-0.06692588815671022
0.022391653272391492
0.04831288441040454
0.0640285589956217
0.024879937498170124
-0.007360743656243828
-0.013039945905188489
0.0631583961841694
-0.005701415412182104
0.027533672394809167
-0.0014242679817782784
0.006860150472424404
-0.06276985744443218
0.07441279109737522
0.019552294053558225
0.00879142531586078
-0.07392543483150268
0.03846667024060657
0.0598621289631554
0.047575966840840755
0.013325888517790284
-0.0230709697891667
0.015493193712650214
-0.014531966271134442
-0.005621000759050972
0.026239543123947204
0.045058995994946276
-0.039372048733254006
-0.05375663168680514
-0.10962849925222469
0.013123401817610268
-0.052866182145179644
0.06051872930566859
0.07420826868290724
-0.04117246970767738
0.0005720072804108806
0.02492603411768755
0.0809393093430526
-0.07578047535189941
0.05512088943080869
0.024923986058403274
0.03512213803136359
-0.022497759291546085
0.12799022030642868
0.012104776282338286
-0.05636375414665878
-0.01981398853672432
0.021931800025567244
-0.0379139682618721
0.0765105778885985
-0.04375953146850884
-0.06910302151545136
0.09726690581903129
-0.011442732629479476
-0.012813420936778478
-0.05576358064718067
0.00026305576512185633
0.008331401991261875
0.004341293620575701
-0.08064112381454645
0.032251076823377946
-0.012795458289635254
-0.02620969130468319
-0.08626281099944351
-0.037123164440155926
0.019403858691656554
0.06262717257949114
0.06462052748664156
-0.05445609576133536
-0.007656859117943746
-0.03178538829806237
-0.04690202039567546
-0.07520590836750318
-0.02002627634407959
0.009971778680914943
0.08903159034114679
-0.04156376276918312
-0.06620256814239171
0.06917300552592395
0.07970606688235844
-0.05089537534523016
-0.03349879657024659
0.03237580339756252
0.011059153707013929
-0.0697212146189775
-0.08298546311468694
0.04902298976769953
-0.055441320214806925
-0.07804425003272973
-0.010468252942666584
0.015856919818525467
-0.1055076868965089
0.1274135760505137
-0.0005981330552475529
0.057617447647416775
-0.012528708624515128
-0.10610391107619732
-0.05815810860819275
-0.08869573497400349
-0.028228973416144495
0.011729884256864364
0.00044077129616447913
0.024307120527273057
-0.06085326875461694
0.050613650854224694
-0.029672530170635994
-0.008774995609593519
-0.033418413894253284
-0.022020679915118427
0.014255969565748976
-0.012298482185521589
0.03023986218321162
-0.015617129996334411
-0.05613202966295199
0.07984538870866403
0.007295543921689878
-0.001661227254395523
0.01429889092335519
-0.0003181507911222035
-0.06492786420065089
-0.015696142333847873
-0.041601657711072444
-0.04423631999801362
-7.665085284664683e-05
-0.0065132566549372176
-0.05728118742800188
0.05930098265416237
-0.03315617013309479
0.003509352790382246
0.03361950642719065
-0.021992310527207945
0.003646808177617117
0.0014006059138687592
0.0009556163594802484
0.03965545325029932
-0.012118529021505535
0.022872524355861585
-0.07296055618796818
0.031753970066851704
-0.029713005648607682
-0.07908471653537967
0.01529018777598869
-0.018776322195202873
-0.00572911695691292
0.0354775655850997
0.08421868992346276
0.13804481304968688
0.1427980086881284
-0.03683791725685538
0.1690634619648218
0.5239960361022409
1.009598122499017
0.5721993059582344
0.04289292387640853
0.02844509178763422
-0.023716080988666326
0.04942362676407372
0.03231884684982242
0.004598692340486944
-0.07813545819906831
0.07548441627644764
-0.03257707858408631
0.11851113498282098
-0.004157152446540507
0.06569002272322834
0.05589576597292928
0.008630997249007457
0.035911250064591456
0.08177383145661477
-0.05647949460761699
0.08858386699293691
-0.07750307120561728
0.03210764023721353
-0.007738143882418062
0.005841226413935797
0.04214245387532495
0.050056510810972954
-0.02861220174139133
0.032990052062169574
0.022555042928124398
-0.028494374575963596
0.11785893282444196
0.007234699882674974
0.007878536981473654
-0.03857339130068165
-0.06495813745415563
-0.058672278096220144
0.08078132416616791
-0.0534740954853017
-0.026966232805677018
0.02865546295439683
0.012067776093230538
0.04125135792098542
-0.06286486391767636
-0.06502425468286165
0.007251647403426762
0.011692366346243356
0.022737436588174228
-0.02883172002671129
-0.04857691813187351
0.004591588870420295
-0.0661495254438442
0.029188049289093482
0.08903016165553822
-0.016792443147662012
-0.08529387669777787
0.08072898687382023
-0.03952347884207327
0.08750971628287156
0.038805108436171826
-0.049501875918238514
0.01760473390357566
-0.09748796112079727
-0.06642295567265204
0.08706954109298629
0.07938317057681993
-0.005787836422169798
0.046969128749678846
-0.06875751300211667
-0.09469717033853602
0.006321161338528578
-0.010636453106814416
0.0020424168966689036
0.03349001480112933
0.002205894520183054
-0.0053876678523459235
0.03288385751456995
-0.02583635142090491
0.023588546253145225
-0.0034527482069594616
0.008501763426266224
0.03999644175151487
-0.03405803256052062
0.009785668721366774
0.14268854485635282
-0.07901424958013599
-0.058760594696072393
0.014687826253498279
0.06722234007820861
0.05699797101727262
-0.04843469492150733
-0.013276263068563006
-0.032074286121514216
-0.053366636668567606
-0.09957384410687438
0.013766796346060182
0.06335386193659166
0.003487807740865043
0.006689573510631492
0.006011215397287082
-0.0342227331932739
0.03266881717800507
-0.07395787070196373
0.060124169696841395
-0.013306264279229721
-0.03966572405495436
-0.015800315136246128
-0.025048119077399317
0.05177492360389812
-0.08480276740887649
-0.030399425664240032
0.08037669714527973
0.00032642590028325537
-0.01959200368559544
0.06396326169526771
0.02294505466552424
-0.05192807996165541
0.007819758180681303
-0.0019005567786848365
0.04634212627967345
-0.058498746558533
-0.003564799490317893
-0.045695669182573465
0.019614932748596946
-0.019565226287988943
-0.0664638527618363
-0.04305467534413241
-0.01291940719727704
-0.11436303991683319
0.006293878224747852
0.06150165701555323
0.047511806687832114
-0.07124341656406742
-0.06521022693298331
-0.051413056590032806
-0.07671218863790978
-0.04163478687787416
0.029171215596962754
0.02392361321245403
-0.02100034690034413
-0.038928976884810285
0.01354211014674773
0.03687454351470896
0.022869481969267937
-0.012875842196380959
0.005771286602744598
-0.04053574819122266
-0.0031812975689306314
0.047772097820596326
-0.02483617558639598
0.006692113679597782
0.01035083325336986
0.01232447341591266
0.1195085862351185
0.5669681650951651
1.0108157598211496
0.5584931914003949
0.0898181950608283
0.0031438810114549805
-0.025469344941588534
-0.02756816746747496
-0.07362118243880134
0.06720675324862742
-0.04154576327452569
0.08030281637321032
-0.031596580924408056
0.039975940013116586
-0.013462765476943101
0.07717843217501895
-0.10150106580023713
0.04274710848014658
-0.024794569470452322
-0.09522662279698174
-0.005766706803089291
-0.03584746286158766
0.028962580306096317
0.018549429627134958
-0.02730368084185283
-0.09309832115507971
-0.0140479930923006
-0.048875759545153885
0.03321321310843491
-0.08976320652261906
-0.05714866408213746
-0.016189604164252303
0.02778338951108309
0.021397311466397576
0.03166488017683309
-0.013359120489044515
0.004804311654390082
0.05448036086836771
-0.02752659615656268
0.049058214384543386
0.0338433855099067
-0.019806753046564457
-0.04956438820042221
-0.03588351658568337
0.026342845795893507
-0.0366198351896817
-0.07734690176552939
-0.006545355184855536
0.007056652444164974
0.020448374944165695
-0.06871466918470694
-0.008107641365218026
-0.01329676787210857
0.02960715582156308
0.006513310684651711
-0.04883552439585919
-0.021379952571656476
0.05156741348737487
0.06574922279087558
-0.0814879987188086
-0.0150410247040903
-0.028110834045927124
0.024124238447011337
-0.0702710266912245
0.02364645851875931
-0.043741539075863305
0.03054666830467061
-0.09499207773651758
0.01593688662768258
0.0008947553837550181
0.07942996766955068
0.017908964274646087
-0.0049384603488491045
0.10682243916183476
0.0018545115416072067
0.06040012506371656
-0.006355242299232677
-0.028759624723041933
-0.021710700826589033
0.03237530839552323
-0.09686330417347422
-0.12216168697187653
-0.008439201542438499
0.02528376946957401
-0.03833108079201046
-0.04264192039073789
-0.0032398618553062183
-0.012068597404120744
0.03747254274852063
-0.044565354435714244
-0.020233806107119133
-0.004178911809707145
0.015069048951119244
0.030960204025149193
-0.03318966659465483
0.01182585084138908
0.041937858089464375
-0.039694290930155036
0.0833497394551937
0.0452493826662316
0.08264062184079052
-0.026751476059163955
-0.014802071428681302
0.0731493662215626
0.08878151300269743
0.031094249841498653
0.014091128069897941
-0.0010978833871407403
-0.06484894355778677
-0.05705482753802833
-0.00608608126093084
-0.1324822191335908
0.018486976178166085
0.001972022523872859
0.0053751814113515975
0.032762815517050646
-0.07066578501969945
0.039254207422656034
0.05265846331627595
-0.04881916336560916
-0.06368781098589775
0.02497710534944365
-0.09160402222191165
0.006208418641678728
-0.024703185390451885
0.0851249340749702
-0.14636000948741698
0.06433273554008102
-0.003779174369774844
0.048786314081901566
-0.028889431009920436
-0.01406199503123015
-0.0373136945289437
-0.05259951007409175
-0.06152609640286677
0.015431677618008422
0.09511519127084946
-0.004357686314860611
-0.006120877208848914
0.014491963128459946
0.049823227869545475
-0.026956714004900358
-0.041964342637869495
-0.023942008095086603
0.04536348531735232
0.0037075825986820536
-0.07320326419312322
0.03115579301353183
-0.06185583966792433
0.039501655893455646
0.052437273320003114
-0.014155571152076036
0.0818253465097988
0.08523309908879421
-0.01603899054532581
0.040955697559461414
0.10992005613977172
-0.012265293084174664
-0.05446145646363957
0.04053555974492795
0.5550544877085553
0.93684180286714
0.4900363086100417
0.07729883647540396
0.017489491292262908
-0.013949822285648856
0.018806159694901924
-0.004454341530358413
-0.022391692104710342
-0.021023407392683338
-0.0355099864191505
0.019271875450175505
0.05321548958689379
0.01468407462936611
-0.07227497764076644
0.03197776969197535
-0.013427940047777377
-0.03654314391084262
-0.035530579922725056
-0.058463017318487555
0.09009900756084041
0.002549501052398647
-0.06186671660727031
0.05743479191654425
0.13350557169911706
0.025540029151110106
-0.0070018685360037376
-0.04959207920180601
0.06558568934168177
0.041352057392227776
-0.03449711614391155
0.055422137134416787
-0.009588288002484084
0.07071843303943702
0.030428025459437753
0.01967558191189215
-0.065237554229395
0.025185651885782135
-0.02393487251593096
0.06808909907788231
-0.05974304353697495
0.0633273070853949
-0.02338765251687712
-0.04896014512739089
0.02446611399723718
-0.08147190808976029
-0.03570655985202085
-0.02325144402962465
-0.014237479415367543
-0.008200718129685218
-0.010014417919234842
-0.02695155445034267
0.006455620571430442
0.03185632875557293
-0.056529882405794984
0.0690053786394812
-0.07189217131887231
0.06684489566039918
-0.02721349692269739
0.04371441261905277
-0.021993251165825147
0.07299154687715206
-0.08840531692742197
-0.023233948534541207
-0.05011245989715483
-0.07056116531041866
0.0579105825864654
-0.03161746976194619
-0.018521325199321714
-0.0769641721419452
0.01860300311098453
-0.028247423097475185
-0.012552069929576876
-0.061012434431338185
0.06519516070357875
0.0733308994388072
0.02137728280793491
0.0087524108432628
0.03394243171053093
0.06993656354981752
-0.07139846103854074
-0.13367846099346137
0.14990120858968123
-0.11944569762255444
-0.028042581733686275
0.012631352613549949
0.009004235900273824
-0.009119465859806558
0.03849351099515172
-0.0031189998598643246
-0.03557903692731701
0.016310471313919415
-0.07050757367232056
0.07105612102711871
0.004821524296140522
-0.04138203366647598
-0.010322493306272766
0.002946889654459979
-0.016003313375366805
0.09928249568094899
-0.01372181980131704
-0.0906729928802795
-0.03962320038719069
0.01801567600829507
0.07412408864904496
0.03369862441675863
-0.05741031480524977
-0.06447270088975313
-0.04112167080719393
-0.10325274745622617
0.09102854759067595
-0.001236530441605565
0.0158148099494398
0.03993731673139292
-0.036100507784852465
-0.012337317209708286
-0.040622373858488894
-0.020743749261402607
0.015566784945471505
-0.026717023471681145
0.019774188963792197
0.014593964385171788
0.04429740791385796
0.10400040184611388
0.053192795201660883
-0.008021598099268413
-0.0366677264084208
0.013116795442828172
-0.050873030280874365
-0.09995988411690111
0.062069008517102786
-0.042141904917494366
0.04529969579230736
0.024965237771230525
0.013480081894019752
0.03737869634320366
-0.03347298746429777
-0.037693618746873575
-0.10638861516507872
0.046391548266940384
0.07471003770367252
0.03870308051644916
-0.014944384137171838
0.06283739745085455
0.07098785946546664
-0.06780531291427445
-0.01824466890137764
-0.08563150834990962
-0.06559237590639919
0.06100604123749617
0.026616257542660962
-0.012661581302525865
-0.029429800387387683
-0.05591169404129476
0.02722448127745743
0.015084399176311115
0.055854634387999785
0.12510393452501475
0.5310562736002872
0.9831164805559861
0.475026992114479
0.09572968003125003
-0.05631315016283809
-0.023646598168127347
0.0098118920197651
0.0061313564754200784
0.037847264924900176
0.015508839926964953
0.018240626509241336
-0.04866214338112885
0.1650868226826138
-0.015323013374064755
0.09481797631677832
-0.07977267467401228
0.029490677286420543
-0.002676041385806381
-0.026554703816788316
0.01691649892890402
-0.03656587228527926
0.09474099765880141
0.06352615850562073
0.004199150152964013
-0.03804331706038932
0.04031266121309845
-0.08569742432879282
-0.07825684436102648
-0.0486919072440346
-0.12691811216217927
-0.12378443740274139
0.049295501672818036
-0.029328588678285524
0.0064483061668576
-0.02095472604841728
-0.012672997058367403
-0.059028880260319674
-0.010909129896655993
-0.038085687562864366
-0.011709734532914289
-0.07311733941990183
0.003101660299144541
-0.010310283390743464
-0.03489744961076011
0.06721620898211407
-0.05425001070575223
-0.01765060297959394
-0.008351358798298575
0.03639495688511817
0.048216368626269095
-0.10938421129578087
0.08170576571885305
0.06119921525744668
-0.04657472701895303
0.08165738219141926
0.02875537122272591
0.02816058745844971
-0.027851946208092712
0.011304213216714942
0.012389892737507367
-0.0698890854679217
-0.05493654567274511
-0.03841414905274215
-0.04404039852245528
0.03238990153900264
-0.02076703441000618
0.13801194770277075
0.05944249720131356
-0.061399843191308534
-0.011767061083561079
-0.004351515526691411
-0.053240008193495225
-0.0505957164350741
-0.04117932366518636
0.0032894597078702544
0.07738486240597588
-0.002536096806631531
0.015535290853352389
0.018558631254805363
0.03746821604503823
-0.013581543282685541
0.05078939610496348
-0.0002885985286527545
0.007787017071298869
-0.09190500305710521
0.017641966841706627
-0.02847981047378308
0.01781709898770636
-0.05802343372001029
0.013815926149780194
-0.09598763638956628
0.04660040197359557
-0.060794292600466066
0.042305326042749974
-0.050542970178625524
0.019412407847076645
-0.029525402887906768
-0.036710848836942825
0.030379199601624135
-0.029947605409232088
0.03519861133889462
-0.024440063808363843
0.02570690723665235
0.029573314487066505
-0.031816271948231944
0.004087090124532267
-0.008431636281288407
-0.0025344073041152037
0.031617424751979754
-0.07088344512410841
0.057107926825328996
-0.08625246411770605
-0.028312399876368806
-0.0010586874970843667
-0.020360024618440536
0.06788519958972465
0.02335506385581901
-0.023833844068198003
0.004358699322104555
0.05844468455086537
0.05839245747883213
0.06194977711496034
0.013120790951002154
0.018970633082437183
-0.007935175552079498
0.03038153860302428
0.03992842196276386
0.0487732750996296
0.053671267941082026
0.011007092697935554
0.001418467989312078
-0.018952748904909035
-0.05120112244002736
0.006478748338664098
-0.002436465877111273
-0.003988402395560309
0.05549956203992539
0.018036727745911012
0.006376248380491608
0.010529576434138056
0.023971050176188103
-0.0191537158119019
0.018017263123667353
0.0409246739876169
-0.03302391899695769
-0.10090903006479175
-0.08905456510553394
-0.06930381658210641
-0.05145340676498925
-0.05990556318664019
-0.09928743119694647
0.06387182634211257
-0.08047502481276256
0.06990644484583557
0.15678446841073657
0.5103176480928385
1.0117682864883937
0.4919465771442529
0.11979372821762163
0.05350607410882755
0.03153202355156198
0.014180906430617802
-0.009761213644149905
-0.0986743978379257
-0.0005942084302064365
-0.05023519713356988
-0.009603792629161164
-0.02626106646236827
0.06325204287517568
0.07689131906599642
0.03286453139276242
0.007959127789502078
-0.07341118805161545
-0.00620477507336471
0.023997416658142028
0.05634346701092612
0.06503856242496703
0.027541588249788414
0.02286877211533089
0.005609679806494167
-0.04021961044544082
-0.06335574353956012
0.012483980389863952
0.004908784874986197
0.04830758116591094
0.009778213716237915
0.10537327734040261
-0.021943221393955607
0.10756945458715722
0.0001461226126634523
0.07869972360320202
-0.06586372741133832
-0.020499993465320818
0.027845422324831254
0.03120359662577888
0.03624918820411209
0.009003820077304136
-0.04836449536505766
-0.04776197029791625
0.005827256871463693
-0.02813215546335804
0.01957892606483185
-0.06735665779847456
-0.03287136034347271
0.10340839406841994
0.04511040498227265
0.017232466234887712
0.060105058948248226
0.04799015570881998
0.10989899936553296
0.014797819966483517
-0.07598771161979527
0.02061391995508704
0.01580272638803532
0.015080446437749249
0.0008600196614073342
0.037951669475006104
0.0768220203385272
0.017045107859053717
0.06488046224174679
0.060756364932459055
-0.033255143129859305
-0.04469781966958184
-0.01048094168462922
-0.013524079152514948
0.032001870124147735
0.019644900185872713
-0.08435473873217345
-0.016177984508502833
-0.13639207153508093
-0.09374052032454315
-0.10936958353611628
-0.007906940762865293
-0.035366275621110756
-0.03275743069394573
0.047033988098334645
-0.016893729880319865
-0.10991256015845813
-0.029819548757264665
0.08879059694269448
-0.03395879828901532
0.03937321328720243
-0.00410237286772949
-0.014309593783799613
0.1038024053527757
0.00798340911490604
-0.030953143738662026
-0.05477922801987489
-0.07011917325565346
0.048173745760080364
0.03460150263928325
0.018361901493804813
-0.009770235137246862
-0.0247076839493174
-0.005744579099463273
-0.020938113435463493
0.039609692352367255
-0.00877049553441925
0.03198325404731773
-0.03687322218143742
0.05897917342540729
0.060148789544484264
-0.003695713572757912
0.03576575435475104
0.016319505555573835
0.013766457851390138
0.0010669163057612835
-0.0199174692215512
0.05850717562749295
-0.014058786755357483
-0.054861915578771896
-0.012220682132917307
0.02493908064060084
-0.0418092670772248
-0.07026409187497137
0.034269309948425065
-0.005597184086186257
-0.022477557092430954
0.03267959107833787
0.004104184396251709
-0.027011502091145303
-0.022180355499620507
-0.010251702447261729
-0.012920897185033154
-0.08304423006808752
-0.020484513469503623
-0.008494278861483039
0.02018287650948538
0.0072122829228776
-0.10861281677595223
0.030721967840963895
0.15564914563743074
-0.08349793759198677
0.027394059627186232
-0.056364549412302234
0.014160252073003213
-0.0865400695030644
-0.02732015289630539
0.014300550013938549
-0.03211049873578046
-0.08630519223259746
-0.009233807370025684
-0.02116377404397029
0.1100661996882353
0.06421062271594769
-0.0651366883213005
-0.11252535774491897
0.06079822334316525
0.0036470095738349393
-0.08574992030266855
-0.0216249672728018
0.012701795595526503
0.1180044836074711
0.42980184687432366
0.9482013762843459
0.47540401174667213
0.12218331104340967
-0.07982353166478234
0.0378839720482856
-0.04344558755006388
-0.01044106964482015
-0.04298036280727905
0.002336282551782064
-0.025753361138234388
-0.002302795442923133
-0.028090122954502552
-0.03491489202597976
0.031655823798084584
0.012293382965685483
-0.007904446582115008
-0.012263364938788532
0.06065515070808494
-0.09500327761848071
0.047897511701672855
-0.003161319693569953
0.02976942198936715
0.059457634427848384
-0.026802338880113297
-0.07791571223711041
-0.06770713243454357
-0.013492021827276702
-0.046468865715574126
0.00447539256043532
0.11379992802188475
0.04204696256217676
-0.01687377525807073
0.017526785105130865
-0.014197089451894782
-0.09549954386395498
-0.07896890283137181
-0.03163779790100631
0.029760427150640114
0.06804353128512791
0.01388538466601609
0.0854264514343572
-0.0036718405736032656
-0.07444215958017268
0.06960990446025227
-0.044155171494572897
-0.027807444475459603
-0.03185222864811784
-0.10752546380739195
0.0012015736329685075
-0.027093461216833026
-0.018908370610697788
0.03872020709528845
-0.06632146768321276
0.02184504351090247
-0.01844802722805076
0.11696930456117523
0.031044503439881434
0.022201120048293388
-0.020201271545639186
-0.003609586434898121
0.030657420949051852
-0.0918635805631337
0.009974290228041215
-0.02661402224869601
-0.0609696919734982
0.07360183217569954
-0.008345880831740987
-0.049315250456010346
-0.03783116238683773
-0.021891689261708633
0.009934691758028753
0.07216969917285967
-0.08198205919284035
-0.04419439182957764
0.02143654740841133
0.042487184024363675
0.003651182793385754
0.07057439046904236
-0.02294541220212805
-0.022420717393821198
0.11288223240412061
0.09038689267180636
0.10610908411410853
-0.06912032155043724
-0.012430867469236998
0.014329088579698869
0.028109087511293547
-0.06736057177357789
-0.06899579249622839
0.00027847035877374553
-0.038819715469703704
0.021638992168916987
0.019886349171902625
0.0780586318482907
-0.0053852107350850975
-0.07346290499130144
-0.06770682010268286
-0.07115942028930912
0.07809945820878257
-0.016421091087370616
0.011410060800958046
-0.03537227914127837
0.058384468245878354
-0.04461375782203731
-0.049258382237624666
0.03220781014795831
0.029357365656600156
-0.03771416807631686
-0.026691093158242286
0.026712558757973105
0.01699014911677281
0.014265847426555187
-0.03778187570412153
-0.007670410705432286
-0.0031590595665359484
0.01873060746854605
0.0859924488350394
0.022854795566987506
0.03500552563828366
-0.03076792880639131
-0.0264761465065045
-0.03245295814016484
-0.06340122163915626
0.04642085624527007
-0.017482855317456577
0.06405287775187736
0.03029958758079937
-0.03011303658508438
0.02533281027504097
0.035204284626923606
0.04991647374865176
0.04038216613143312
0.04146342808248202
-0.10990429664909185
0.022996471333707455
0.09981437490346012
0.009507517127565611
0.07069762157645125
0.018728506520235146
-0.02177909724990694
-0.020582666932636745
0.018465310465285156
0.015174825739573565
-0.0035620806492944485
-0.04494549743916905
-0.015161014999286557
0.02401390964122134
-0.02810301909510641
0.00487872357584415
0.03911674287626421
0.027374598180453753
-0.03305429162275441
-0.028690166846443182
-0.030924878791069522
0.04926127465708698
0.07353026002778064
0.522474586905319
1.0628164880235529
0.5784384965134568
0.09807523333834423
-0.017730090746803744
0.031284651680604375
0.012753245911687194
0.05991961206341121
0.01612070178007029
0.10539706891936594
-0.039454818655135976
-0.04032483673441255
-0.11468843063008771
0.005825516668875743
-0.10872992958735675
0.060987167782175083
0.06341878034292538
-0.03678829071674227
0.046412735968804214
0.028912780824691328
-0.026904949940488677
0.01262590764015778
-0.005600052021542821
-0.056903174959219704
0.03582949120799439
-0.023704312438928066
0.1104740751507491
0.03108960114281202
-0.006567297016875294
-0.010937223970536042
0.08046921251068041
0.12887733368076448
-0.055210756202570016
-0.05485323836651042
0.0020430944162508065
-0.016671739321090864
-0.0012240237929451872
-0.033054018172945294
-0.0351011932167925
0.011985051224288307
0.01255781673324592
0.048960223729785896
0.10288217919723996
-0.012135579906817795
0.028387619317265696
-0.07166539642175852
-0.009455785353305695
0.025076061320160287
0.11090928236033562
0.04774709397055202
-0.036241962980251514
0.04539138105008384
0.042147554419042554
0.04739021475206057
-0.016794544085230723
0.0823099979168121
0.01005329460572616
0.07540919078535879
-0.0338193849317839
0.071847392123893
-0.0824363323371739
-0.10399173803038045
-0.04090799876881819
-0.0120769239433215
-0.0845401410611879
0.025483679310192783
0.03279649699822624
0.08336655191619083
-0.02624995170162325
0.008411662305374806
0.026188317696759375
0.01998478133772261
0.05040360499940231
0.02907858406602983
-0.03391274148566697
0.04215855189050064
-0.00035721651212238426
0.012202767766288961
0.09066325416001757
0.06391895181054182
0.0354426911199576
0.009079196531633053
-0.03159436075173652
-0.0143927734935623
0.06557679825797093
-0.08627653259192325
0.06560658834269685
-0.06466085357352662
0.01325118107829345
0.06205095347364462
0.01167358415662259
-0.06598834099606046
0.08787746873291627
0.04092484689565745
0.02877610665743906
-0.03254419871337973
-0.04023146766178221
0.0312787903294423
-0.05742073229020999
-0.06390804042130264
0.012298087956516962
0.040669229970706156
-0.014266883787039886
-0.06556775792323927
-0.058277290156185525
0.01584536996225599
-0.032550676559222884
0.07490999559199928
0.08480832300827035
-0.05634787747807346
-0.020849042475463736
0.07196000921973722
-0.04040539437825721
0.000395155529207366
-0.033937779876601785
0.023705644720323604
0.0844279166675431
0.004230535083010184
0.03573915464779111
0.0031542829988550334
0.0005871941324954149
-0.008902161420826957
0.029007513678735948
0.01747829243397208
-0.02932007748493072
-0.050706819248628944
0.004251019146414821
0.04540904461137818
0.12816747182154162
-0.010280289012708851
-0.00766533366068139
0.0064729870163902446
-0.006477383971002002
-0.05815897286827487
0.03421528251490291
0.03509464953857995
-0.05992067632286038
0.004427319078093445
0.0015915773050470623
0.031169069980603554
0.015486267961539317
-0.02616249578226378
0.04480053594822189
0.04368353065712318
-0.06923289662858566
-0.07063277649622361
0.010598526082672961
-0.024605046016200786
0.06484981790516191
0.010042216029127497
0.0766986709665256
-0.029708935045749237
-0.03423382539401031
-0.003643421518312737
0.06794322465445032
0.030011484501376987
0.07348775037194366
0.060740023936574926
0.4491143629349224
0.9800897691712834
0.531097977536984
0.15693959350678582
0.008943075580968358
-0.033775039233066455
-0.06068993284183591
-0.04774313089637976
0.0446188319763177
-0.045266844879676645
-0.03509284076709367
-0.027299676091362853
0.030770896728009575
-0.06307244414462852
-0.0290176837134484
-0.0686887383208833
0.007308795190795839
-0.030158229652625868
-0.01836789390872643
-0.01660652972565401
-0.02100234378806815
-0.01747236268555477
0.024041130501290545
-0.06589239615165927
0.05325254898643764
0.0044928693622490355
0.025301920242728204
-0.04480745707468685
-0.03194081017994162
0.027637949956012195
-0.02422896571835381
-0.061315081050688225
0.12322340567613697
-0.0912311713423707
0.00511713414075267
0.02883067486479379
0.036592039016644116
-0.050015714703033065
0.08620278141594206
-0.04987637387413499
-0.047236130877313424
-0.02634285014357577
0.05938082826494689
0.0898224883528761
-0.010520480768402674
0.043229309982963225
-0.009311201325941288
-0.04909848272530568
0.07120587677007394
-0.07560881194576129
0.027556783980609935
0.0345851749470416
0.012756719847310586
0.009463009628436839
0.02552338509741149
-0.05816467253058244
-0.044139124415188115
-0.040196846278388675
0.04055299164913227
-0.055275913247056864
0.03697214724624626
0.00228495519409221
0.0406577051349967
0.07117866285593881
-0.026023886779574092
0.03285739028000939
0.06348280725193578
0.07259655593469243
-0.01188961294840521
-0.060929582840331835
0.00722524479539012
0.0057904000623144125
-0.018804445177466447
0.01938470580203927
-0.029193223358177672
-0.03425590520133526
-0.03951229977929965
-0.11257031164728437
-0.06787314426736787
0.03242708233429906
0.0138447524253797
0.01554411575752404
0.03306351461718977
-0.02995904876032658
0.07745044506082735
-0.04638201770787623
-0.06092345554755452
-0.012536433259149611
-0.011824886785098779
0.04160559831048699
0.008317104540234542
0.05739259891657921
0.015906732855995694
-0.0703304227286841
0.0013259949580006769
0.013809566703746962
0.010781266746579924
0.002546051951915675
0.009900562387244785
-0.010911094478280705
-0.04311428285564573
0.003923183095301383
0.00023457713959824166
-0.05127695910184552
0.02156523153142352
-0.013335724533932692
-0.07495259072397359
0.034564561972252945
-0.08290488665109874
-0.10473003635967192
0.01561170913274339
-0.022558085920695362
-0.013547624508951611
0.029184362440140978
0.042175720312837915
-0.005000693845464796
-0.025260763099888686
-0.008995521264995502
-0.056339198578585804
0.09553394182752672
0.011400384978082065
-0.004179721696185609
0.10947089317449031
-0.08109348889166079
0.034191808016868365
-0.026695557290313178
0.05095110031016334
-0.03994664823419403
0.04672607432248007
-0.012747553106785995
0.0004040485581986207
0.017648221407385197
-0.025982641753927477
-0.06713009678270927
-0.009788139696237578
-0.08598276191322539
-0.025793524166979595
0.013804390333402332
-0.03107067869396475
0.003616450922153814
-0.04084279057023407
-0.08607398233812824
-0.046594874093943944
-0.06228968772722711
0.057087905999757854
-0.002129405523996956
-0.07747998823592339
-0.044445201268270645
-0.05147752211906767
-0.061577370576027746
-0.043138155763369254
-0.035091952762740096
0.1274037707196139
0.5327996449545952
0.9805447679751441
0.49886388924872366
0.18095348400735609
0.05854757894479856
-0.014946239848963408
-0.07830366276446857
0.023546440966081297
-0.07265005876747191
0.057411962060062875
-0.020552801876708146
0.03245462570792035
-0.06275270871514191
0.02358391963321032
-0.04979442718670396
-0.027258917686228314
0.05920217574064077
0.03513709983198173
0.044336599858815835
-0.010226897112347543
-0.06776582816987041
-0.022732718730398456
-0.0011002900535679074
-0.07958938618731148
0.047276640812052975
-0.0012099967418982818
-0.015917576332678637
0.04407480168272723
0.023598172526405135
-0.006312111853536854
-0.02595958893715102
0.07646077901893464
-0.019240183715641967
-0.0649832886845185
0.034280544525476984
-0.01774311179466965
-0.057059403870730156
-0.022547629758542763
0.035231724555405894
0.07450279869592151
-0.03961034668431404
-0.011563836304766173
0.03807246949413784
-0.00937298096076155
-0.05144896643050432
0.01120056772753687
0.04022260735031315
0.04798622575014131
-0.05980069537851055
-0.04869340473240236
0.10654930410591719
0.08899476487310659
-0.05274300336928453
-0.003273965714251511
0.0050196221684956945
-0.03618951285698501
0.06297831447376737
-0.027035735928548868
0.04209664107298597
0.044940353234333826
-0.008445254328489192
-0.029079767538197444
0.04546948445605549
-0.037423519593962964
-0.047748723805139615
0.10791001757172713
-0.027814513469748243
-0.02560955324672913
-0.04112899633023997
-0.0385481682167832
0.02690161696122975
0.017161576517099875
0.003937502434873716
0.014965734675676648
0.047056464481575626
0.03787419316845005
-0.052814102079855846
0.06462587358975573
-0.047822925204396155
0.005166721222562673
-0.05963670923829087
-0.05721563403937663
-0.04696246018864272
-0.041325840782233655
-0.035527265492251034
0.008963976641150721
0.008513923045394547
0.05936030133956735
0.06017257860210177
-0.05526119409327408
0.04924304008492326
0.005687794256161563
-0.06915797363451909
0.0953733791523961
0.003086543152220791
-0.042976381745736335
-0.01416651870207637
-0.03567260102009532
-0.03259416295902512
0.04652915969682333
-0.03296992470242033
-0.05005568116639308
-0.04746056833100236
0.038895472289716265
-0.05137413869347193
0.02252949774676305
-0.07169449001962679
0.033420998575154244
0.09071902406292028
0.005024314466366019
0.06651204587263894
-0.03195780443737833
-0.06410797235439658
0.016477600054217913
0.03917774864524589
-0.06888513062923105
-0.036607382495186865
0.004736576608159418
0.012581256232447305
-0.002911022184437305
0.011414873660400726
0.019425791930165755
-0.053513407537226866
-0.024498402006919325
-0.027037985404406578
-0.023791797825841423
-0.051079726021820177
-0.04466861609423198
-0.02903439488018777
-0.05810718010406323
-0.0002595065139086849
0.04142317129659512
0.008739533501721384
0.07267668146243869
-0.010066350187215448
-0.048141363232186166
-0.006558872247443813
-0.03831764376140813
0.011011683693489333
-0.07204800350181684
0.0817650566806814
0.06507329191444833
-0.032561092024354435
0.012685607095383702
-0.006500504196901681
0.05139625281251079
0.0944666637170678
0.02048289691241269
0.04764936071318361
0.03945750616374167
-0.011758127420540582
-0.051737019159936296
0.02926763274940645
0.00781455763623133
0.048159586014356826
0.03088235925036785
-0.041837684398871616
0.0010381229601550642
-0.030086044996924105
0.02852404978386269
0.06651181788396478
0.5837300783475234
1.041912439579469
0.49142147471136516
0.14208341091618384
-0.05853974001529782
-0.012025603344374879
-0.07580635178975464
-0.04005749783320639
-0.05022054733712289
-0.00522156313264175
0.07973501686208904
0.08060096401953903
-0.0016608988540789433
-0.10176496727189886
0.01182659358736178
0.008994112878136088
0.05626655636560865
0.05732664390680982
-0.050218938561484405
-0.08816821596867258
-0.02689512389790893
0.03718987751998929
0.03842848839578412
-0.006364312219824609
-0.04384254733174425
0.05362112886632332
-0.07480946500957791
-0.033416222122903204
-0.08421748380225805
-0.03377679719583827
0.015890254934618278
0.01284090085037509
-0.18253796292999072
-0.014860011837756744
-0.0036826620689155726
-0.0572318963447268
0.03825476515452415
-0.014527506202510754
-0.019775933992839945
-0.026157055733119917
-0.04319617812483466
-0.03118737649885016
-0.0021751833461489665
0.1274979431914222
0.0769371311362122
0.03798363358465441
-0.06468455609216324
0.02803798203901078
-0.04285197655317045
-0.013137931220505118
-0.02438489374745174
0.053572181315031275
0.006530322479681704
0.08223761346618194
0.03135640389580971
0.03074115175416313
0.03722392225732481
0.08562528562390612
0.11733617651904958
-0.02670249103251772
0.059005241135159495
-0.0406233377507213
0.09555027356168838
0.0028416959958049636
0.0755437429468913
0.08190094610282249
-0.02440943231383295
-0.037049589324095376
-0.008490810721174327
-0.02116811606873128
0.045694222733689005
-0.03564715929878088
-0.049364966531254974
0.02515798645444488
0.04611318156257947
-0.04443780767424685
0.03367758557542746
0.05566603948757301
-0.04432345336981616
0.013024252463753709
-0.08097771126097587
-0.029402099227274305
0.026845523356095705
-0.0034021588823218265
0.02027630466092594
0.07478128346875876
0.03081251513523214
-0.08409635601182475
-0.013108273366242946
-0.06913212469539137
0.0900454784866014
-0.12249882449663814
0.027150520577798584
0.021739159999877015
-0.05778006858848272
-0.04266508949186978
0.014988606436398062
-0.004008719532393787
-0.04724680317104216
0.0522594468929598
0.03064242165580528
-0.0827630887302243
0.058815902264215104
-0.10586160203866529
-0.05737931552008832
0.018463873763868453
0.028307164442945582
-0.0007165978232501192
0.0047083517782319645
-0.03724520074762249
-0.006878929363157856
-0.005052884746665737
0.059172040900313305
0.0006208293919625432
0.018345085167310215
-0.03945450131083692
0.05803244910021785
0.04693975453448138
0.07064963268412539
-0.04384430738342949
-0.09200378748733012
0.030967143150384464
0.015370627724919973
0.022420512774050442
-0.004002370449571447
-0.05019896496546138
0.0540108023709484
-0.007130219690026387
0.029728793373310764
-0.01995081617746886
-0.04090322265861786
-0.009748673820729773
-0.018485742077606768
-0.019167349556569332
0.05217756278349195
-0.06367430397036417
0.0036691473872299944
-0.08092735316726252
0.0206043139874811
0.024503737347654864
0.041199360169885076
-0.031114012421865567
-0.03089714280269635
-0.012969440094808002
0.055421887072462074
-0.018601192261380312
0.005872397517034189
-0.030746660184040837
0.08782268617268975
-0.061524407772197004
-0.029017977927594658
0.026939755719526306
0.0030142860846570745
-0.04783416931592378
0.1629323877552748
0.44699059837976823
0.9930582634928828
0.5707771288222108
0.10806680488963401
0.015222646676078356
0.05416539909622856
-0.014096021542398258
0.03353675839049014
0.060166120910077094
0.02081416001282955
0.03194172109948803
-0.03471440088741089
-0.01853607080741816
0.04732115763743821
0.08596092412088958
0.02426664763927806
0.04040913534307826
-0.016495743609900103
0.018055830597326777
-0.011576940647530497
-0.029063374342264244
-0.025405061261773235
0.019504415042463256
-0.08191785223267113
-0.06497430883113607
-0.03819777347374445
0.005803861016471968
-0.029022788983068083
0.12057756060418681
-0.06845967515124352
-0.042622744315467385
-0.0913774973385956
0.04970935350037607
-0.04635779777441836
-0.04986438913870336
0.017806756670894035
0.048384513190266716
-0.08892671056787976
0.06993192988194881
0.0005469287952914813
0.11524027171508466
-0.033910204918185714
0.06125789764764239
0.012913737178120693
-0.03464108746548689
-0.003192384385093078
0.01760554788513739
-0.0371046547373721
-0.040012902740747446
0.025601736849116707
0.012332951252527567
-0.04116683863535548
-0.0563450491798757
-0.11401127716680629
-0.02450607651313013
-0.014360831100194258
0.04571008180211124
0.05247081106889671
0.05977847337803978
-0.0038068716250771514
-0.041631752594715146
0.06706328288716384
-0.052594395402036954
-0.07168726564016475
-0.05524349476276095
-0.016452301891697413
-0.037748105740171435
-0.018062821599443706
0.07303073581985095
-0.043576319507502265
-0.06069771358680386
-0.04808964735335527
-0.013197995233402786
-0.01458346060657309
-0.03673037985354667
-0.04578050003439931
-0.015210651650896434
-0.17958786819697534
0.005264276312792507
-0.04359680603273086
0.021822350466878693
-0.08983790293761106
0.028069362840604996
-0.0481109976088259
0.01261729349896365
-0.023133290547730424
-0.025551631127342107
-0.01256238291245927
-0.05906674811185497
-0.00204488746123616
0.017358259271343154
-0.0013428921633080004
-0.08547200344774346
-0.0718608038976072
-0.0033967155723949784
-0.004487188847211219
0.07788991520160336
-0.009931912989687899
0.09679871402179481
-0.02531329099238677
-0.008338288616948145
-0.00621968530616544
-0.016875900471325728
0.036658911211040396
0.012845894747808187
0.02944312508123841
-0.02665983086057007
0.015802587930555768
-0.030590863673291044
-0.04123966353398344
0.0332117415655686
0.03521822376633757
0.08845351127535202
0.00032686688895974586
0.031076427369041083
-0.05435554095195009
0.013299699552431425
-0.017825170465076614
-0.0394866979511277
-0.031245308837956783
-0.005710785339487906
0.041317138869844096
0.05074183201666347
0.03414133868603727
0.0982760560204653
0.055048671504147474
0.018975852519502553
0.03744175078709244
0.0029414338832384006
-0.0005383835829829261
-0.04614704980938596
0.042571711229920324
-0.009901923167620391
-0.005854375135193542
0.00297893435525764
0.027557450311139393
-0.05379663342796958
-0.024556484287294386
-0.05053972077712823
-0.03344291450878955
-0.007166112873947861
-0.052829894186112725
-0.018329662189603024
-0.018025798187399696
-0.04285435618834474
0.0378473845320298
0.03744725696429307
0.043326877464788784
-0.11009364867439847
0.04682080214297255
-0.001720275728538179
-0.05993281498131908
0.11078216802046566
-0.04383562451311457
-0.05842565309867348
0.047652673387699164
-0.02797188719368663
0.11411343730422555
0.45401208499423407
0.9096431890607822
0.5559928492098642
0.1636089022604898
0.035028042942272096
0.039737210367476954
-0.08821830648806325
0.025136107761058353
-0.05958742400036218
0.05851345143732986
0.08180168797381138
-0.03025578521915108
0.01205443718947483
0.024819944084963685
-0.002570601023160138
-0.026011033370380368
0.02350376356149062
-0.04760263114417499
-0.0007429777010036854
0.05760740433230027
-0.006261568981698148
0.055905002475347534
0.10840725303369654
-0.06493380067904152
-0.0114332001392118
-0.05090463578146122
-0.0024691211512606823
0.008198230805193333
-0.04866841509589059
-0.0030685795469398425
-0.0014195963613309493
-0.061232675192552356
0.04553851855112948
-0.011946300673355129
-0.08254200664526834
0.14001358625465005
-0.1084486174205257
0.006114798611283274
0.0704906820718131
-0.01976814760871143
-0.040235220830951046
-0.0454525913116909
0.015489520447054204
0.017047106432553933
0.09211201828706908
0.07251531108243782
0.035652830309009384
-0.051408482696506545
-0.07716481067763947
-0.057319577628160756
0.0009513127412227337
0.030118919944294983
0.012487023037469534
-0.041294945507995603
0.1095043809990861
0.0032295973111951086
0.06923944783742748
0.061337327340030716
0.058336464862842385
-0.022059035036795866
-0.027466723771892937
-0.020029350988099687
0.12188936767737091
-0.04072878515152707
-0.03784046866452745
-0.05868537836399529
-0.0193043869640984
0.014439283429196582
0.052727128176495025
-0.00502211215376922
-0.05832230480564762
-0.07318937722730039
-0.0009470209479925366
-0.04065334629784995
4.396704403808455e-05
-0.08398975826886179
0.05611082750436902
0.07093865006121013
0.023996134705302093
-0.013221264611475079
0.043159691938619085
-0.011951635575214182
0.021502663817462863
-0.02786318287257087
0.030605653868761414
-0.01798337374463107
-0.04114933117283792
-0.03648119397104678
-0.03567376352245416
-0.032910537589222875
-0.0006693503482202276
0.03710573911989662
-0.07032167121144826
-0.1230459545406728
-0.022704025260646334
-0.013694767852822923
0.013036364742574675
0.05049446826623566
0.006807099055491899
0.0485943719396598
0.0021202438783005113
-0.09534185495057594
-0.020737616281990855
-0.011672250430682108
-0.0064728925404145725
0.04234960211622557
0.02274134106633351
0.014194951621858524
-0.006165648132558018
0.0040465843943333435
-0.02179033943281437
-0.016288244081186284
-0.09432016720139265
0.054885326657935586
-0.007113754021724325
0.03140855444161384
-0.07077313417264969
-0.038872994423310686
-0.03695675832000157
0.08395427716338
0.015876664711325896
0.026718323085610292
-0.010087918089522281
-0.025578537228997777
0.051386391905114986
-0.024974430951474173
0.0958930818724743
0.1259579768822938
-0.09960317334450322
0.031990323364930066
0.01902628584936504
-0.0512823577154117
-0.06515930742650969
0.010370030159280591
-0.0640001113419373
0.0095575101622447
0.0354046532290654
0.09683713865029593
0.010830513582625705
0.009636108937198028
0.032426367371877485
-0.02935052219796773
0.004454697799020145
0.03959683045326671
-0.014884730809765562
0.03434488164944124
0.021832269234984766
-0.02691688846514098
0.04606786696764576
0.0057318928279866165
0.016522515115997942
0.020334914478225316
0.037922181949398406
0.08052707685046283
0.46840336572533514
1.0005419223451466
0.47187639393592845
-0.0017669890035414415
-0.08187312829416278
0.035899056696700564
-0.00843381443437392
-0.022087300195879747
0.008718731636402995
0.04109796277788934
0.017374969299501324
0.07190347837399891
-0.09708845027659246
0.02887026247361185
0.02792357946585773
-0.003743703932709148
0.05432070627595124
0.007827354660632205
-0.02502536436447446
0.04702074778778234
-0.08278520411722583
0.03528030166821243
0.01934735995599196
0.02463686424792261
0.019314795942636107
0.11139633694689742
-0.013225215982648628
0.021952260797896982
0.11963721500129615
-0.04525621185504308
0.014404317682559904
0.01585758155436894
0.01583684505950098
0.008371593841657192
0.004969917149798595
-0.050433328823255255
-0.06370555668112973
-0.03812941984301074
0.020885061799882396
-0.02537082686772693
-0.0224197441712295
-0.09300550877137742
-0.05206248664816804
0.021292370088601034
-0.009867779245117808
0.08018904388613113
0.01784521210110229
0.10213287371615123
0.004938493908219016
-0.05980781936066504
0.016631231088622623
-0.0640754987042431
-0.022184338814505877
0.0035923218344786124
0.012742189965100213
-0.04425547476821995
0.020120174346562606
-0.01983208836385579
0.03776310459621735
-0.09191996693377148
-0.025909291170414364
-0.1429286773659854
0.044905673535725985
0.09871128687809867
-0.06823485165813019
-0.08594242175682727
-0.0038780430164472497
-0.03410080014894199
-0.019475798932441855
-0.04512347576562994
-0.009440524472437133
0.007345742686391158
0.009429648633743766
0.04958211636536973
0.010667407793552807
0.004276363382290273
0.056309731550633936
-0.022104951844301668
0.0008861690668784199
-0.06443860620223589
0.025865012563486174
-0.07412472837076067
0.02675996186947792
0.10512799865847006
-0.06897423131976659
0.06240486173230533
0.010432476538175441
-0.00260510822424166
-0.0645639558929922
0.038556090359042075
0.025505023632024795
-0.0665963261396454
-0.00839396613592038
-0.02716448815171049
0.014284995826310163
0.02032890797464395
-0.06486862992020401
-0.034218034808782355
-0.05065967536097639
-0.04451084145107458
0.020087374275118974
0.005858297385232313
0.03297798427350924
-0.005608745147703693
0.06588196046597605
0.009875212584846414
-0.00638724898399829
0.001160949044759264
-0.037039876231121455
-0.03368459296535411
0.024527151681670942
0.007409574028276241
0.09123090609100482
0.07794535231523084
-0.05554830860090901
-0.009922934340341933
0.05097252514447203
0.049337620258646055
0.03552405184698905
0.02240780971301253
-0.0206404498002455
0.03931810394721218
0.020051092446313538
0.017698042135675413
0.07347377471881476
-0.025711509180489447
0.05041225995375081
-0.14245368553146442
0.022437724497753116
-0.04279546097157681
-0.011086318395081361
-0.01005867414541051
0.080281793771664
-0.01852887423301137
0.01976734175659716
0.03915488564785653
-0.04560765870163456
-0.0014641041689630394
0.026071911848337487
-0.0006718094264441868
0.0736871335052565
-0.013930122336918134
0.0123601841410533
0.037086559969539835
-0.0003416035793890889
0.01593397475053635
0.003254060910966549
-0.009240933067534724
-0.06020057174088117
-0.03190475300015119
-0.03402406528057149
0.01624552055390308
0.10444600017833353
0.0470998294339871
0.017620647210935713
0.07905850409241391
-0.04525092229815106
-0.031984187087630046
-0.026303886707248855
0.015746571085169143
0.055174042239709856
0.567193356955132
0.9611937574122477
0.4255276579048431
0.12346572048749065
-0.022654618434965874
0.00835734243333488
0.07553861927566646
0.06198229021643962
0.06111007791136781
0.09521143817184193
-0.009782736091838065
-0.01534765024563784
0.027880849399050008
0.05189860898968201
-0.008825373083242894
0.011647397842831279
-0.07189944296805056
-0.054849888645233894
-0.04085445018729014
0.026398518461661226
-0.06133491547928985
0.04516100278856486
-0.05846032495431121
0.03072836487912936
0.0028483344285404402
0.061255913821164736
0.04265386569651285
-0.04359382067439622
-0.022268392997582195
-0.03116682961184159
0.009125153531374688
0.06221138787421842
-0.08829331806053275
0.06120387608551275
0.013586451736022001
-0.017238126194521777
-0.025538291451658274
0.040085511721531575
0.013793806207392968
0.11953458620057214
-0.04256791672293791
0.06058495530034073
0.0030226307542582905
-0.07418698673636118
0.012815231374482667
-0.028176034711212068
0.04492260905534549
0.07627463004408339
-0.008400745827384221
0.055665917297986416
0.016693991477583846
0.06222755177761076
-0.0950661726576519
0.04444604141304875
0.10711109007848406
0.1066420248419297
0.03993071977785692
0.010887518869718197
0.07968456698439101
0.01733947106813485
-0.0307282874794821
-0.018388817115610242
0.04482114013286208
0.059617631278316235
-0.00997659887783315
0.016991600682377175
-0.022277292336613425
0.08250240326835379
-0.13368738960745988
0.00816747250899207
-0.050546764605865095
0.07304718647390408
-0.022470312674221216
-0.0630401686096239
0.010101541893364433
0.0865774438550921
-0.1055356823088153
-0.03422467414276149
0.037652716342053714
0.07603855513511192
-0.010104016570015828
0.014938596828393642
0.05861911680290253
-0.07141453460611304
0.005265736902481191
0.011573207126218872
-0.06757921326019861
0.04120398290095524
0.04479187700462843
0.05906107046676062
0.0757418727340498
-0.06125916067805769
0.12356848557409016
-0.08160444920232401
0.048714792888574866
-0.01556353920985219
0.046673159493996585
-0.013348032140166444
-0.03600255427706605
-0.0038989206407751146
-0.010128097592097748
-0.010701113158871954
0.06694119358103717
-0.07634500754920033
-0.06791593973678471
0.002776569277057951
-0.0618059970050375
-0.04322395267057372
0.0584335610592898
-0.04452316667309125
0.04068359260777095
0.003782314690118538
0.004513796977412919
0.024283200799309308
0.04786687989120079
0.026823476968525342
-0.0721308129712284
0.009767354121791359
0.011619241894789715
-0.06591413992931991
0.03921035949592535
0.10961906398165921
-0.05747124659857533
0.017136042307596553
0.09356807704379638
-0.044443863382708594
-0.02717896932767627
0.040924620214919605
0.02912163092761796
0.029764844507739266
0.020592594533654352
-0.04627033396218093
0.08291245963469186
-4.9229030006891854e-05
-0.01274833887216175
-0.031865528484590386
0.05125498749150606
-0.009370249121582743
-0.03288559376943702
0.015146199286092977
0.08248888416628906
-0.024757758028516028
0.02769316288334093
0.07487255320511474
-0.005845223549368221
0.04091082663646236
0.18390957221433338
0.10716880265240061
0.004325047941544423
0.07853276970965682
0.06546797364910145
-0.07458687671136238
0.0096483730666697
0.09674965906614957
0.04624797601443103
0.050141757871365364
0.5028792185747933
0.9719598976659433
0.5442759603205263
0.048927096009224916
-0.04675695237010058
-0.028348906090536127
-0.010798874153301753
-0.042688791204899657
0.026032704141373493
0.05120189645757015
0.025621477296389607
0.018840788345372794
-0.06272175268776685
0.005997155081865272
0.02756742024949707
0.031012597424748562
0.019708288414945197
-0.042109066694317215
-0.018790380398312264
-0.03605519077421459
0.021542870510147916
0.01667363254414123
-0.010649413499406915
0.10980774007497018
0.062380699931500375
-0.05244190082010456
0.0375387458954797
0.06093957376360176
0.002109436334028004
0.04214141049220874
0.11330089926253994
0.02212489613383085
-0.0001421970762308853
-0.1029920286127562
-0.08767780506578776
-0.012180087916309229
0.009686845219404728
-0.0367204281618957
-0.0927968537489633
0.0974089694508371
-0.014908050315026629
0.005035331667208349
-0.06412653213766367
0.04053459224620477
0.058714931962414535
0.006835818277916266
-0.026650210229798077
0.04082318030719942
-0.022941105241306325
0.09177144935350912
0.017000895873900922
-0.06966857368558688
0.07607585599038474
0.012132368544830664
0.026117898828099687
0.029757334344650322
0.026598248632032775
-0.018355931774028042
-0.08020067848062984
0.016537335107158862
0.004559780287597254
-0.023881732919377983
-0.030148062004411898
-0.08646536999314476
0.04759707783843911
0.015607818662359236
0.01878237231260561
-0.037913024494936005
0.05047805382621309
0.012070060067305443
0.04238732715728463
0.0171321838617125
-0.021360537542767635
-0.012690090371376642
0.03061643806349424
0.03572625681615941
-0.0072791420833478605
0.07996172371498546
-0.047836805739180394
-0.03575939421914119
-0.054006207768374385
0.017790477685156677
0.04651897232307978
0.03845981236445079
0.009593203257658186
0.012890167202193166
-0.006546081571171961
0.06118753214329367
0.009923213638643645
-0.009751933192371555
0.06450340020099421
0.006970119176922121
-0.019727965582911313
0.05182816386950809
-0.05829821221126211
0.020880662624093525
-0.057367792554671206
0.09015862958630931
-0.0522566986396916
-0.06690678724902935
-0.04777425387670459
-0.004494385596016414
-0.02217611784077854
0.003738887904879473
-0.025558308911659552
-0.007345691647956407
0.0633693194140584
-0.004858503595421573
-0.05520184480115579
0.02506293507238119
-0.03758414586375536
0.01521065094101199
0.024105510112243374
0.06570006756508971
0.05498145537288353
-0.02741435563400381
0.06462731195234421
0.05638087287291732
-0.0006592533983136935
-0.0004921911234209487
0.022089629173445383
-0.044392031897498505
-0.05810593036160447
-0.09680413807364811
0.03368864489010593
-0.009784578642870075
0.07786784781797068
-0.012938665285449586
-0.04311567653550554
0.015191104326940527
-0.029765671703217512
0.054729503105800464
0.06171812357050532
-0.023779330314686223
0.049439465014857555
0.021270306841904188
0.011756574032896025
-0.052200377079838635
-0.01280001645403285
-0.03812030499083748
0.024646469133763296
-0.016372372360122855
-0.08115064028730362
-0.0341195044266499
-0.031805528906081376
0.06450307790610661
0.06844600044284237
0.001305570760137365
0.02602438990193447
0.08635449666283034
0.00731089154941696
0.04388766243322631
0.037054442179879944
-0.04073036760637863
0.04711139197904998
0.022963109266750905
0.014050146307557089
0.07177432506383018
0.12527311915353612
0.5435016106112384
0.9742330544426685
0.4962063977033787
0.11536629111356428
-0.03234882352763682
0.01747490218226023
0.012378190163858771
-0.055665218222460226
0.07079184281975098
-0.03352217120170907
-0.014653233391419688
-0.04358158170647933
0.0791028197521863
-0.05654572529287764
0.0449631277356064
-0.01796790433483814
0.059298314220606156
-0.041151241543857665
0.03824226559741756
-0.006912962718531233
-0.03366485616437601
-0.06460176504755737
0.07788212280504865
0.06257733082544228
0.0521241298889406
-0.007540576599329198
-0.018677608852697872
0.0029384382600404057
0.011302375909571378
0.06333432433741819
0.0218930387117101
0.0042830461533064
-0.016315739944058678
-0.03586434949956129
-0.003428790596024465
0.029925183794801025
0.04705206643264641
-0.07969069908991225
-0.012824194249267964
-0.030004689530855028
-0.033985573406582745
-0.08138657262057848
0.041471539118661326
0.00025441248556155394
0.02345329280561465
0.0066200933757523065
0.07756449936532653
0.019265250910317878
0.05991740748914627
0.061615587233092045
0.036674808096396554
0.029955312981202797
0.08601598206667956
0.05076774489683327
0.028708544168929602
-0.02169352854384371
-0.024546756715274762
0.08575906538083698
-0.06695273036460235
-0.020542047909552413
0.026340086570313306
0.06430964995631848
0.03916914230946411
0.041139183386535674
0.023101799766562115
-0.01843030849969805
0.09880362444871459
0.05100134380663127
0.0033339289551647527
-0.009606808194466554
0.05923439270256436
-0.05493100939179405
-0.00670500055663956
0.007355636802922331
-0.02644320092912679
-0.027416993835022597
0.03280417672354582
-0.04995651677331282
-0.05489781620003479
-0.0967776199133153
-0.03593930872283582
0.024089181003352753
0.030328559451877592
-0.04793079619926535
0.06482397069617139
-0.06263377757071949
-0.022918327318647087
0.06333793987319936
-0.027205341488506812
0.0002782346017025397
0.0049212248781303584
0.01729216524695218
-0.03693022910415083
0.12008396394112764
-0.01641271168990512
0.008672291433485165
-0.0851880382728706
0.021571923257979856
-0.029685204348881472
-0.014465766344018742
0.02060347596924393
0.07138398196176142
0.02812101103209863
0.06509830073492766
-0.018131653078249262
-0.04270331254843365
-0.015971878858290222
-0.05981044405318378
0.00958669392057738
-0.024676885165404238
-0.04349840197920707
0.018560424899619257
-0.03382989530376564
0.055499398221260536
0.039318799335522986
0.1129660369319397
-0.1126631769119385
-0.0025917428749856497
-0.002272435620489553
-0.09402928735284233
-0.11105037741861384
0.1015618419227383
-0.05707326268985583
-0.041700737472742264
-0.019204136830527314
0.006248271444343689
-0.004476251581445573
0.008491248374882361
0.06085162758738977
-0.0016029587614507781
-0.09113016510261815
-0.005360148249987132
-0.014201071411796407
0.07281642332331967
-0.03704771915769045
0.023669250320249635
-0.0200440583144033
-0.032843400119021336
-0.021514504796198278
0.04687220432401331
0.007157347921288114
-0.10639319085987511
0.008530422125546786
-0.009860736865585779
-0.006523091443887384
-0.06397978822528909
-0.05808514122335771
-0.033125309844644665
-0.040023163360900026
0.0028345517924201827
-0.03515586438270684
0.02827534902694001
0.019770023312217944
0.020131330952464232
0.024665369627513447
-0.03273633802576228
0.11663935669698783
0.48129734243386435
0.9905956753951287
0.4484503617538588
0.015251823257057234
0.009896698797576514
0.00040481145471651415
0.02724378787197871
0.013527830533402469
-0.04615979839490062
0.010084922926937029
-0.01564172901577422
-0.014443408789962498
0.045099986449714774
-0.01923227770596682
0.012990896542413616
0.00302223624835754
-0.039481249619342906
-0.009887765637033698
-0.05603051537113111
-0.048189750514276694
-0.053439439872953576
0.06204473760224355
0.06038405632205336
0.020467754365317392
-0.04746512588155949
-0.0312407199633766
0.016290199149966846
0.031532245032386295
0.030704640213643636
0.02186009899148123
0.02282546389129532
-0.028767272953504425
0.0023853503444369057
0.041947566655536755
-0.14625378800907304
0.03770243347046361
0.10680708523413354
-0.05374296690994643
-0.015762192565384952
0.04755166825593445
0.03774926778141186
-0.08913091348919461
-0.08025110349509867
0.025287419145319456
-0.05820252235235163
-0.07312104734434274
0.009368916122066773
0.050377439286048244
0.0023880876239517554
0.011564750426116344
0.0021228950951489326
-0.012126517795040287
0.09653504855369917
0.0005275907918749645
-0.02481338895812454
0.038831291145896694
0.022052439980267687
0.048890900213917
0.04713362516776912
0.08828979692358943
-0.04642271844432072
0.010672680997204954
-0.03126544079455181
-0.08735515754419296
0.04345400359579162
-0.017119014866796272
0.07918894890066701
-0.04311912240840059
-0.016181487207217064
0.04811514192521729
-0.05085758434540252
-0.0679950753812458
0.03839330168406921
0.0028450955551161026
-0.07425081624948417
-0.02482517685887836
-0.025106412345705455
-0.0019742197656207965
-0.02354256385839901
0.11609816418620034
-0.004190294228784158
0.017594534661087537
0.04161449615248673
-0.06545757623008899
0.049729087264969746
-0.007630630970447957
0.04070800051587356
-0.05782142482534432
0.04795878574930412
0.012994086405725486
0.0885299483195251
0.053960080709755144
-0.012953440783640816
-0.02101657475709105
-0.05114733836077043
0.05069339470816852
-0.06853761675901911
-0.07485651351076669
-0.018923206926733813
0.08861404062533287
-0.04261755392132
0.05133848717046368
0.002456884327855863
-0.020395390328201327
0.0552358859320395
0.04435190492574831
-0.03377492863057449
0.0030857303874792345
0.030273244095532094
0.05555759668852927
-0.04596936192218631
-0.032001519369309554
0.023398087624311822
0.0008514204996906698
0.02897621658665732
-0.10522587236960912
0.03556373404537696
0.01719773227815413
-0.08696148611113895
-0.029865389154810136
-0.028278284790543902
0.04862878303856537
-0.004013007541362443
0.04818256868774395
-0.03261830432692575
-0.04402104988265517
-0.015201702021001863
0.04901792179803108
0.027462560119694324
-0.017198719758261136
0.05917415638094271
0.0058293335852932825
-0.019108686567631605
0.03542001805457842
0.01902039663288375
-0.023694201931287222
0.019039571575722582
0.07371507881151888
-0.004310032751178127
0.01129172572199376
0.03604085625681122
0.05035860639780823
0.029589745134173076
0.052085924749975324
-0.010417393705314255
0.020221690145722476
0.012216726034553503
-0.020863508068790095
0.010750066950605075
0.0030553614128944148
-0.013417610883751464
0.08789631927939882
0.4995920944300308
1.0219249716803978
0.4185310473853613
0.116073993965318
-0.05298772216119527
0.0733777575641563
-0.09732321285358007
0.0331950324352583
-0.08516926165293823
0.03598972056305513
0.021404016454801597
-0.02583260223068405
0.057132209818452906
-0.053121876836770235
-0.025868850271731414
0.02259158556126562
0.08957697646012269
0.04061261225447916
0.01728662352452086
0.0491201101164951
0.016486918878740053
0.027607911911673295
0.003999255200671434
-0.0017658260183449678
0.0020901693674296013
-0.050323800513990435
-0.053127168200069255
0.02560502267130231
0.005179294469960948
-0.08471957718804288
0.014969401634945862
0.016901066983344697
-0.11596492354001237
0.02015692713726052
0.0642696215209801
-0.05681413631512531
0.06582906792404025
0.0018703750360732328
0.02242528660303905
0.0011583236079714756
-0.007544413838673072
-0.035047952414688936
0.03525379253699031
0.01594701980168747
-0.09834117508645293
0.04456572653648177
-0.028922894702794646
0.016350392789545337
0.046259397141512976
-0.020022076285725453
-0.03962214546314502
0.0027756441710451154
0.04245194848891101
-0.009133873263174313
0.036214496833303245
-0.0785595874207339
0.0020344412744953584
0.07183663594716182
-0.041092441395007624
-0.09068757648232445
-0.03441532236374977
0.02375529011778432
-0.037309685605671356
-0.031296346751693314
-0.028718131576408797
0.1081649612615377
0.005767963784829701
0.05395337429736409
0.03953151038083716
0.03519141701836263
0.030163037530330006
-0.005656776663092214
0.01870918670074918
0.05997935780050914
0.047593352724768195
-0.05145721778631035
-0.0050051468333966315
0.008963913106462384
-0.07626838274568899
-0.03873946519337563
0.013497637147289882
-0.11159530813516216
-0.021092913124887636
0.0015755060507804627
0.04404907103733763
0.04911976912387576
-0.018158096518602337
-0.053378820585804204
-0.0549248104857307
0.07432120690075349
0.0326065487813594
-0.1402046276957738
0.09026850950939652
0.03601394236929862
0.0012588201521774424
0.02190785442083152
-0.020518203328597356
0.017512896204810894
-0.02525882747329568
0.021727551790191438
-0.0749317735660948
-0.009001601669076122
0.047555265101129764
-0.01296160653087198
-0.0016995501450984508
-0.05438942308121968
0.05535067340596318
-0.022742872247948718
0.028463746639562477
-0.052652581272196755
-0.08487332530112385
-0.0037472155569615723
-0.003098489103595616
-0.08511013942572306
-0.023746839071326693
0.0041187552832619495
-0.009727055673772897
-0.0036989990739296863
-0.030189900207128514
-0.04165757427239055
-0.02791126516413507
-0.013023284403715718
-0.04235746918024739
0.039440731178763955
-0.06408951847590949
0.02096917985967474
-0.015752339084017793
0.06425393742986871
0.0626288705826103
0.0743948701391574
0.045094957759732775
-0.019362558042459448
-0.01873117666225398
0.0675791569939302
-0.0370920032843022
0.04175580220848821
0.09669125293842125
-0.0225911943231585
0.010838959502970778
-0.057733608374952006
-0.006739752134205652
-0.06787971595490004
-0.034770330092032745
-0.01059244622248725
0.04880647082395309
0.03457218669574054
-0.0508272429403578
0.034716937686873964
-0.08310277646981544
0.015549824151336242
-0.16588464343472753
-0.02611131372911854
-0.00583950577540257
0.059474170642102475
0.09191761800338126
-0.04323223746765451
0.09041899932478228
-0.008509608817990849
-0.08789167130442382
-0.09985128893452005
0.11676424134984345
0.5267247788014081
1.0508111986697766
0.4767113320314564
0.10656420611960916
-0.01950263447968389
0.03954690819597778
0.07388085734108588
0.05437279822009944
-0.0030822895211133033
0.02009692541178286
0.007440922068299952
-0.066278790706089
-0.02873567846046208
0.06730116421143086
0.05563033401508445
0.12524220450023524
-0.03256391510259769
-0.027883760543705723
0.0327426497883893
0.05817422052520115
-0.02295285370539402
-0.08762946054569301
0.013538338940614462
-0.040482142549253614
-0.03492521458573745
0.03193253005552412
0.0035832141143503104
-0.021044564542964803
-0.08397046745046616
-0.03467089369497981
0.05160225281052634
-0.0603675566964365
-0.04215973232774125
0.05358277486945806
0.051170910009067955
-0.04542282213669851
0.01168114920757454
0.037483539527926074
0.04289449146752267
-0.04355303951065915
-0.016391570603372596
0.13843291484987283
0.05396877769003958
0.03413239609413686
0.07880372314105243
0.039953087494779965
-0.04366831933153736
-0.05025620207081635
-0.09430371832332485
0.022522316876416405
0.04287497127495428
0.07583624869997369
0.009460976021765858
-0.034324424015912326
-0.034706979731130204
0.026657137091455865
-0.06305142739862703
-0.06050464505615503
0.013801366526949391
0.08401179564004829
0.022142050529474423
-0.022283983677700812
0.038294752311930635
0.008464874791842164
0.03761884054937212
-0.11886958424959596
0.02215905860014853
0.013767295666524501
0.1408314078825704
0.02513947600973776
0.019020804113408753
-0.044260293237495356
-0.03897466355155653
-0.09838739220562509
-0.04114808349322935
0.02267287926747851
-0.0008222865935025602
0.016206352768124564
0.007158063894801072
-0.09886027694640158
0.07721076037509694
0.015099093158657307
-0.03409455110629787
-0.04135110009116401
-0.0020600088914956545
-0.16610629616465306
-0.13320797433249232
0.0320027318628304
0.01677612040885778
-0.02702502599492378
0.09507473027866696
0.012793768322317295
0.04685064686975458
0.06499402907136138
0.011042840949222586
0.1304359072918417
-0.015514882463075528
0.008899970232583907
0.06010635783571147
0.06842914117404773
0.016804251753877453
-0.022455416038990553
-0.03623386553352952
-0.10454554464705197
-0.024749070661280972
-0.029190839560686604
-0.06782840073190273
-0.07317909346107503
0.014732464436901524
0.007750558628585504
0.036089834422985204
-0.10817004184379585
-0.08307255602775794
0.08757884345298014
0.06429378587326066
-0.05310339614526052
-0.037489994079364285
0.04846357329228561
-0.0020141178013717213
-0.07775161272128389
-0.06890936381548904
-0.03761189360941004
-0.061324488503701306
0.02957652257770393
-0.007587118591721134
0.026379823764466605
-0.007875245731674908
-0.018972075342881013
-0.008941236549420195
-0.017157597829740384
-0.048735004608323855
-0.0419277487081406
0.09735188824347674
-0.14692483518399155
0.06372062495083033
0.016680161272816456
0.0019121670604214016
0.011585824158200747
0.10427722395560142
0.035572349864791415
0.0005817297715031178
-0.08636006936900936
0.025183785467420707
0.0353843952913216
0.00563228658518838
-0.07271940691111005
0.011335453659769663
-0.07624046329091452
-0.003499914279952755
0.010156834728515106
-0.064791548093709
0.016812727640228845
0.08420886171295329
0.48509416197477356
0.9054944201879975
0.5489981291167215
0.16187237695429676
0.09553745135519823
0.037904368479916635
0.10092797687321893
0.03357984276991727
0.06723202878609685
-0.00564215777164968
0.09871638421773617
-0.08283176593847674
-0.014323003218375499
-0.035959342904539046
0.058799386401441334
0.09529641485929
-0.045469078957624
0.014191895136366024
-0.07150784383488194
0.03130826033239051
0.08648149562895284
-0.09468264638647961
-0.06291737104510724
0.04634714303661987
0.039542370651246245
0.014886660692489074
-0.102617039009577
0.02112587773967611
0.05894252046218759
-0.02421617472081877
-0.01710821719879769
-0.032999275849587444
-0.018295789851825613
-0.03388690689100993
-0.03955312885201123
-0.044279733580798876
0.02125664183226425
-0.011094120308487443
0.0192083640661252
0.000742914096770437
-0.0452836258783165
-0.029427081160392828
0.03341724543899773
0.046820018663091496
0.06586940586413077
-0.04539383398492531
0.05761359208810643
0.02405749506368833
0.022450816607663956
0.004011491189202044
0.006280977493101254
0.06600687365246545
-0.06539137926099403
0.028751457460305736
0.010705273659318148
0.0030057224339945215
0.03906472330331853
-0.05612528418409712
0.015715503791279554
0.053732756397089534
-0.05814976701530237
-0.04497421686804354
0.040939444208994855
0.05586871262562512
0.04188451057191452
0.007724053869268452
-0.03443153633931102
-0.024082080134720307
-0.019798494218659757
0.05913218778395031
0.021375865279544888
0.01732262264730281
0.0453417098698111
-0.0015461274440189483
-0.07602958562926582
0.03659276697299775
-0.02140885886775619
0.02664536681203386
-0.06789395245452982
0.0028975861873457524
0.02919791599660116
0.029116775248098414
-0.01875453841035534
-0.017974377945186536
-0.0795821505107488
0.0035180121185390484
-0.013990208329070658
-0.022152133952525056
-0.008764828816163854
-0.027972990386356464
-0.04348869130449589
-0.08877422162429671
-0.013168074286490037
-0.06580287436756023
-0.006945277000390153
0.058931351686466994
0.013375335471598455
0.1393726874412216
0.053603216998905724
-0.006970687089673889
0.03368612941405318
-0.024641494680920153
-0.09597806186383565
-0.10360665021903576
0.04119476672026089
-0.007555278396307852
-0.0021706367679435535
0.0007651918396298721
-0.07728513122373024
-0.029149315330788718
0.04948226513794632
-0.020100630581959364
-0.030301852001140578
-0.02696324146466697
-0.06505849585327189
0.009695446522214454
0.0460937845956247
0.03208339932234043
-0.04126096946115007
-0.10469045605791581
0.040553915123315395
-0.0018899471778290025
0.05188215891213478
-0.021967839849066688
-0.0318065425413311
-0.09150545696436731
0.04575040961885008
0.009924385909232468
0.08471667917449889
-0.050269592212608696
-0.009443033129772606
0.1108547430240901
-0.05548107127891382
0.025566110210124157
0.058823644015931244
-0.009842684697196744
0.01945650231394339
0.10541300057213608
-0.012381956265359349
0.022766581023203124
0.033619430501487704
-0.002048329097051395
-0.023114072645518572
-0.024422499699318315
-0.00014112059465650872
-0.03859129742510484
0.029196296184892518
-0.07466599018461462
0.12135242995698088
0.015813859814898006
-0.016238290073244746
-0.01759794331211937
0.05111745498998656
-0.1020660750691739
-0.021174626418491424
0.004323936336150941
0.018158353585095627
0.13188404196129305
0.41905765678058304
1.0102586734193637
0.508458889737292
0.10320577880098591
0.07641186209789767
0.027582432350556785
-0.01901114702377371
0.03749359444944774
-0.03831228224723901
0.048891199299538314
0.0030606472640139705
0.017254259013851508
-0.11310657644770342
-0.030397435891556458
0.0862151223912047
-0.001874437049020633
0.04788551849678749
0.045977593097603305
0.06713379012845934
0.05245180447439002
-0.008671348942649868
0.014826310909393906
-0.036336639569475394
-0.0017446582192476821
-0.08987682895787485
-0.08093286862868279
-0.02901445808284364
0.007737830523214497
0.005252817352495446
-0.012852611517263777
-0.07945738988097158
-0.04535303156794396
0.03506322545106161
0.08175702048034995
-0.00509459756892011
-0.07839096137277607
0.10149711129053625
-0.03200685472156521
0.03666777355186955
0.010498970026256322
0.026764364018243905
-0.02954894607756553
-0.016302014613237797
0.0041528101440737935
-0.04844459532331338
0.03979077618671992
0.004945929584705752
0.04367148214792599
-0.009161234654786772
0.017670903431767426
-0.008886308019829828
-0.01020630612778696
-0.0704935341350432
0.03705607222481792
-0.005984828948965799
0.06571351743245833
0.030963936387804838
-0.05571492440048531
-0.07622944405858395
0.0370768144407537
0.007945970601020855
0.00804929779007505
0.1113283069121271
0.030090249768995627
0.04979450955588988
0.025511469065921596
0.041578550285996906
-0.037951922523905036
-0.028736520601752854
0.08944769062050265
-0.011677189915318256
0.0670693715978946
-0.027135675203177653
-0.02797592937854091
0.06285403221180184
-0.02681325717489917
-0.020057188198424454
-0.01694261751885968
0.02019202302794254
-0.025123245456323787
0.010509833188721042
0.04107780775724207
0.012832385098096831
-0.00696265285200986
0.12775354999557545
0.07707510490439538
0.017971384901902376
-0.1313103872935902
0.0401224297052693
-0.010071690038498195
-0.031472942655768874
0.014214455729226048
0.013257734764008086
0.030052303808817293
0.02273408795701727
0.08729101908362202
0.00014525301801846015
0.08692058193131535
0.05496941566786341
0.04789933144248884
0.03458951395483906
0.0576462769558346
-0.019586093924453773
0.010188097087596302
-0.07065739064576225
0.08292219198273199
0.02073554080046614
0.11746652809304536
0.04973681749524195
0.00042808235622238274
0.027048493613302183
0.015864703494957565
0.05473853505145089
-0.050486883449074066
-0.0051127282878972655
-0.0016623405777168962
-0.007837531588464605
0.00997798147147786
0.07600874328427579
-0.09282748006712455
-0.06452348566324913
0.04132052367959029
-0.03051698396859398
-0.08337064011020107
-0.026207007386094633
0.06939764224493902
-0.026256872692632577
-0.014868229606916979
-0.08270163354814983
0.027114729078377815
-0.012280688052955766
-0.0015668487310010828
0.036812249247423566
-0.03006688584219951
0.03846184016368365
0.0789739613088363
0.0054210211761884395
0.01066548331753303
0.06674881043794025
0.016192707762711523
-0.043229258547949644
0.06372707306318581
0.032129518784255115
-0.08409393923408229
0.07286970659750866
0.005699807559355142
-0.031827990250053784
-0.07552253733372635
0.014963062672329414
0.018609319030494648
-0.002620643228071465
-0.02324351510846305
-0.03906561322091997
0.0893582678797036
0.017642807458333354
0.1199837441854844
0.5870087390010826
1.0163400803140377
0.4563161186217999
0.10237550606981932
0.031096228898117084
0.08226337506243359
-0.057942679756852355
-0.005994742315649336
-0.006348770490174627
0.049198060000292546
0.027337394188175386
0.034023050426448584
-0.09080518784223707
-0.035657054658572176
0.019647610912544657
0.02451356251924248
0.0067021163744026314
0.07574656911529637
0.019254265113757964
-0.07471206234562604
0.01685619632886249
-0.032257520008570253
0.018987400889281844
-0.0910441494614311
-0.04272681168837164
0.06991884365822389
0.03204969332838117
0.06951181813584249
-0.008459813708909258
0.06982411734907007
-0.03214498622966537
0.017506482331882244
0.015962144487369267
0.07655649311406641
-0.11637998618447959
0.016292321961848707
0.054807198090191224
-0.05128651879815003
-0.025453928600279913
-0.07388522431604248
0.024050483939040822
-0.021183681121754144
-0.017664206932547246
0.06729449044868151
0.011528067066896627
-0.09393884048369877
0.01381982688937184
-0.04801119659002183
-0.04653702144819791
-0.059646308008079935
0.004019553749308325
-0.0292228752791559
-0.023397615635441283
0.030249639912892864
0.05485374038402621
-0.07200435063407971
-0.12811894105891664
0.015324315548647036
-0.0879448464771061
-0.06899332124776401
-0.025110439914284965
0.040846430957504225
0.06229008936854816
-0.03037393098997512
-0.03803404255728257
-0.05563149099254775
-0.00015113894663634363
-0.013009421645286562
-0.04384067840171452
0.06744103706192144
-0.14031874801939487
-0.026067106842344603
0.05930940280955841
-0.046626048016335624
0.08563650676298445
-0.022345128563047694
0.029458000828742743
0.017872165109903835
0.019031863766266723
0.010932478473435932
-0.06833086589131983
0.005063450036198274
0.0477223905792557
0.06875350051493698
0.026799923098959618
-0.13218636851644683
-0.02701933331933494
-0.025106558106402707
-0.09587366011702175
0.01694530150580743
0.025199779808493496
0.04803623743036642
-0.021285459684005983
-0.005557845241480745
0.020248504754476544
-0.029222104464860822
-0.10702407817570476
-0.023897961349347296
-0.055130603167846806
0.00391005736599702
0.04980124655296654
-0.07862063021697424
-0.04882271920024675
0.05988849727601782
0.027204870610528783
0.03244849225847306
0.016632832903445596
0.00809319231801346
-0.030699916502423038
-0.042542324011544314
-0.007608756611430094
0.11934508703221239
-0.02173527973126413
-0.055934133264995904
0.07918444497540984
0.004617941779716067
0.039404377746290936
0.006222651114580723
0.03331184135606142
0.12474481117816175
-0.06708552254357378
0.06138685937322015
-0.047024959251634996
0.04319801010007926
-0.06324580549024218
0.01575218168263542
0.02485519604655305
-0.02882823463283732
-0.03178100504417492
0.0569935541740225
-0.0350130381349813
-0.05790841717756915
-0.03354955500080732
0.043315057598444714
0.009095325180215474
0.1008038996567709
-0.013413395237117596
0.0008878524329371973
-0.04415534467003908
-0.08339144104327562
-0.018765478338410982
-0.08465468620579823
0.003247032375810626
-0.03505052084940505
-0.00043832595406126726
0.045647807036045734
-0.05130820131864176
0.050572430334326623
0.01792618113826957
-0.0073979930588625835
-0.005270392307638122
0.06853078248581586
-0.08954149399493944
0.0002126841906129473
0.038250285837159746
0.016278559043040094
-0.02798251249339122
0.11116435489151222
0.026080448706579402
-0.008066935217366138
0.0008484614932138101
0.00706615673817404
0.5175556589879244
0.9943802092080437
0.5212445145719901
0.03529404929158532
-0.10892871529111388
-0.027247144090776977
0.061997301948828236
0.012690348317763356
0.01510054334574129
-0.08127951488400054
0.008458214313902248
-0.036167875921602415
0.06437864505798489
-0.03238384980976102
0.009500759155757169
0.04673622045716173
-0.11132207516224002
-0.016822512950350473
-0.012937101744332592
-0.007330815354563713
-0.009952512354146625
-0.040389125643802884
-0.04413265769947289
-0.07345368884028712
0.026702390080643068
-0.026293693546278897
0.0323677147761481
-0.01842220997855886
-0.035795247367483726
0.06539154034428704
-0.06065524840402366
-0.04309499310869467
-0.017867472388372777
0.0030797061260035108
0.014507204802242425
0.014469691693491103
-0.10092305244477834
-0.08165350398402796
0.029552004229101786
0.04475987666386364
-0.019953545528419225
0.007671098363859615
0.03524634878873329
-0.016656610683687727
0.02677425117482043
0.03918207782777789
-0.0038361693403757857
-0.06367190609495936
-0.05323739267168123
0.06591318472093695
-0.010185866301165539
0.04333736218993398
0.003302554683989668
0.030124967256608584
0.04105636483020567
0.0147129457387155
-0.11977544478104274
0.045804275976492614
0.017971044818254546
0.05228576139692218
0.04665308419477578
-0.07303343066226745
-0.06108742960122976
-0.019405436857501384
0.08384028737588378
-0.06444876140175912
-0.039400803836603486
-0.05860438205771379
0.001432158499850025
0.01768481867136943
-0.0067258809207365365
0.06518922227743537
-0.014484704131136712
-0.0028373976735149424
-0.049436343554985995
0.016332437743549415
0.03135517270806231
-0.0516588133377952
0.0700351904153677
0.052326742360375815
0.07561612496380582
0.09222855445736924
-0.028095453200986893
-0.004550444357383412
0.01627179334808353
0.015245647207935044
0.011121846028427645
0.025023616634217788
-0.0012857379054793073
0.026915324806960256
-0.03717429681003084
0.04687692722683896
-0.0007496857906035611
0.05952786269648367
-0.014113109517375974
-0.007188020717750654
-0.05417911088696129
0.031957454436062425
-0.0006281019478158053
0.01095290895334931
-0.013494481093822683
0.00743708203476893
-0.0022115106116481153
0.02984341285734874
0.011863890635142111
-0.029866495697931664
0.027629981527647025
-0.06708580712454595
-0.004712730215162256
-0.0064190018984316395
0.05043144540508668
0.01858534377672964
0.08903373537302443
0.016771326874399934
0.012685555626933779
-0.00029160491149647335
-0.03996483449755562
-0.002819902493547172
-0.0969904977273566
-0.025580188879407675
0.0497093949887308
0.029268583795792655
-0.03465320051502638
-0.0025924026870328674
-0.00641301979387756
-0.016263560066480037
-0.002699126714980303
-0.05172243773795418
-0.07780739298889894
-0.04229067879354317
0.04356371537627347
0.0029704966689295064
-0.018988929255430022
-0.028539020991314286
-0.0025164941098685394
-0.016292133856149024
-0.0029513810644408583
0.05258785255063578
0.043308728929390375
-0.027040654570990558
0.05362905511738585
0.011499459111855688
-0.0024366061423488987
-0.061232088200311965
-0.05199692452357893
0.019415083250383283
0.07532199272270967
0.09953722954202916
0.0023683520390440117
-0.007141544308364925
0.00998120931031353
0.04714995065822761
-0.04291016590337671
0.018548423927525287
-0.004822986232395843
-0.009957548927143746
0.12949462489403923
0.4234575878623829
1.0558001044239171
0.4335861229886934
-0.02302563185362519
0.004703566134504264
-0.026655641562017402
0.034759996172352745
-0.06155634087788582
-0.02666005154886434
-0.09852792703148039
-0.03465720809344305
-0.08375313592567639
-0.05914498508073655
-0.034267313248548814
-0.04510091637212445
-0.01980403003759873
0.060004521308095554
-0.1262066363341008
0.07326680717917212
0.09695615573267106
0.05322677159337337
-0.0664638222115188
0.08300212539872692
0.011018412056570927
0.02520764107792772
-0.013757292166227545
-0.08189891123966943
0.09796666785935326
-0.03442484107154759
-0.016409458385674393
-0.027167866945674024
0.011599787022770237
-0.018150246843062736
-0.07982157134309165
-0.0010962266987160766
0.03469378802067836
0.006776432835796896
-0.13039756083533002
-0.007930853145743929
-0.08822902271678205
-0.037398161266179814
-0.04899642190625939
0.008517219125204437
-0.026128565891251267
-0.02214601060713244
0.04719946821049811
-0.04832795477514803
0.0001330793920243398
0.02098403876076281
-0.030772139900234998
0.018858558004027054
0.0604113055971419
-0.021799356706773115
0.02125238476491488
-0.05089464915594408
0.017316289248972244
0.01603538870285129
-0.028715894203012987
0.020022946799044143
-4.7717686241782635e-06
0.00870914071959007
0.04274918454290627
0.006880877832229616
-0.014033492664000792
-0.0402691022137493
0.08497063672075118
0.06242157262094836
0.008886457217009659
-0.00718738430770262
0.06807749935815892
-0.08035708758001053
0.05545631993781008
0.060639960417470995
0.030755407502532073
-0.06644153638198085
0.085129800679001
0.05823691416195274
-0.039156513052192025
0.09542112832475722
-0.028612587732525785
-0.04069651353556332
0.06551027498433473
0.07814855231805147
-0.02103699332765195
0.0030087538248263442
-0.012623658398848693
0.01417162759022509
-0.0882492540714268
-0.04006682087052518
0.01845537856733252
0.03538676230454826
