ecg
0.07582102029192495
0.0003547791175478345
0.07833022954721296
0.03830945260536599
-0.057929381274436656
0.02112783140064955
-0.08855799585273971
0.017701919201648823
-0.05123178441818299
0.009615584906335722
0.03387751358986205
-0.029412598387269385
0.08452416706059326
-0.04607379039438874
-0.10693464278713401
-0.0014442363717175949
0.06825994710905965
-0.0010498469797651656
-0.029650730930821895
-0.08243377925497047
-0.02857322047828505
-0.05710701115739511
0.012182937352616477
0.016420713314338493
-0.04744749495966933
-0.016312702426455678
0.07231008761317523
-0.02129737726385558
-0.022566457112416644
0.009325645746444759
-0.07049494821709396
0.04749060266693699
-0.0206553363898411
-0.057903867736668946
0.026864410960937612
-0.02438589099337378
-0.043791308824482844
0.003632432497760993
0.052588515449763965
-0.020534823067031083
-0.04825883936566269
-0.11229049090555494
-0.0725023162425327
-0.02411867868298785
-0.06537186935119214
-0.034939560845858045
0.09640070327309168
0.06155729553438064
-0.040904676861289097
0.006904749670682414
-0.054027258154421755
0.0781057471255627
0.0035568001714319994
0.05251096384774943
-0.03933273334854523
0.08006252834390658
-0.021997350734305365
-0.08828936856921281
-0.008675389563036134
-0.03434370573655303
0.0502543455530029
-0.031020916995664782
0.026891086870339937
-0.0341121830223522
-0.04229160770431653
4.071575784523569e-05
0.02658767885617578
-0.07802177363430918
0.046146624909559564
0.04685358691158786
-0.015227808643508237
-0.009513590618440555
-0.13243126302431457
0.09013246321665476
-0.01608471765355406
0.05419734508056789
-0.03025338194694708
0.00014464605202810718
0.026152799305099495
-0.022945861389709412
-0.07825972335932796
-0.006293741929392387
-0.07072041129646521
-0.043139775514075045
-0.03150024164399737
0.0039481736604717
-0.03214983818370621
-0.06096579821962002
0.009388793230512804
0.03261252490327025
-0.06931883241794688
0.000953689547842626
0.03762233329378658
0.005073466557826179
-0.06052120174059261
0.011971384918599637
-1.746534298233949e-05
0.007599999302302188
0.0018883746019943736
-0.10092828827498207
-0.008676032047142316
0.04751454673606915
0.07185429222191234
0.04971907163602909
0.0012918025802313824
0.03458767506915735
0.0271496141141955
-0.011603776694904007
0.0574657085302993
-0.03233415013456075
-0.005384388274674606
0.0451069608801247
-0.04584100292010707
-0.0667904454525031
-0.04851594800129087
0.02220818539197985
0.11167670627167813
0.059890506806540636
0.03913811840922945
0.07829881376737145
0.014470694261752638
-0.03089177084720165
-0.00306806358382081
-0.013376727943902225
-0.04815457457426414
-0.010417622589223005
-0.0779952784093969
-0.016131014102198915
-0.0048866705917029575
-0.008646541873924458
0.08414453767695294
0.010015921855149061
0.08823289919814965
-0.06862083623249568
0.04381794016049852
0.010698646200739376
-0.004872747384035828
-0.06628171883946997
0.01701213549614424
0.11371403973820988
0.022031462115782278
-0.002310754489299925
0.0074340231237595466
0.029482104395309145
0.07813058791675692
-0.018485966551371327
0.009248735433259776
0.00024139907356797829
-0.022780684018531328
0.0098086776463099
0.07653206779733629
-0.03260152563044949
0.11842156153732367
0.5201263240434493
0.9995094204198901
0.5215196447131888
0.11933715143456572
-0.04571684633363229
-0.0030058654226861993
-0.0007619960174423323
-0.05245091810732107
0.002947769006213132
-0.0013790214796605854
0.10116514579917951
-0.04123234045188878
0.05001747779511132
0.02366496963811826
0.05164875290432818
-0.040061501463685735
-0.09413151668610702
-0.005367890036747238
0.03852980751913626
-0.016075979412159134
-0.007371187197032361
0.09877189082469341
-0.036375146645553254
0.04627090059892127
-0.049042646326740026
0.05750811841297657
-0.003490572456633886
0.02441669218890785
-0.03212720879427757
0.004708995182190342
0.008437884897311732
-0.07068089567113904
-0.024665464948413093
0.013359625758144485
-0.03768822361729169
0.008768102908492129
-0.009256437906330442
0.029717921789629016
-0.008423699238960069
0.11904387125145682
-0.09847058947444354
-0.0396510837742514
0.03390469912674073
0.009280131737875749
0.021815276023805476
-0.16034458367377818
-0.009103895792379805
0.0003094225353900544
0.030420267311926538
0.01777858936381787
0.0006520511938716159
-0.005102838884012773
-0.06297836798324145
0.017251407661778184
-0.006151211916810327
-0.021591050995080786
-0.0006562019380442638
-0.01798775551731354
-0.07235583004604722
0.032845568919710355
0.09359228865350291
0.013862304322789794
0.014768736487034771
0.07497814540026718
0.09515845952891219
-0.008787259613261478
-0.036110774818849334
0.021823341276598032
0.007875851754742544
0.0483101107408533
0.00018666271551663922
0.003837460515054518
-0.048016617828927265
0.05106691653501802
-0.03176812167902608
-0.05967000064743266
-0.13262583175218687
-0.005059114866350016
-0.03551894742425006
-0.011685056289008183
-0.02443669941238387
-0.018265149679848852
-0.041173899721228216
-0.03739573128942462
-0.04745605631492056
-0.009834743483091992
-0.05725945338887659
0.06289075650320693
-0.00045275051587307443
-0.07677098594542935
0.010988929686001136
-0.04490658115893931
0.052247098755664745
-0.03065975016584547
0.0696679970540238
0.04998564925165946
0.1820115800088965
0.004873010654509077
0.034475476795230546
0.0006300105795562669
0.00425261636177208
0.06164900306803627
0.03862751489745381
-0.00460476630208947
0.06604288624136474
0.050063871364644255
0.07782789192858086
0.061015660089328995
-0.017672039673720878
-0.023025383613377474
-0.02127408651099703
0.03904380138594396
0.06714496579574211
0.05291649920249944
-0.07140366053354569
-0.035726034469189726
0.03416252771822137
0.06144927060203967
0.01540540605810349
0.07639971535573803
-0.09453110727138636
-0.010467412686646402
0.07085696997498421
0.016956999924135217
-0.04025220462994494
0.039492051014447076
0.006870733572823723
-0.023098476641183856
-0.07858099632724992
0.03481237039809431
-0.054335882201929586
0.10710913122115671
-0.08912314565852535
0.002740393715197645
0.037577469800690634
-0.050851592599570276
-0.03547654286037102
0.04251056432116043
-0.04753560707047084
0.09603164712314986
0.00278181261843035
-0.02097524277282847
0.08110663250897998
-0.05292909494769563
0.08648803717486221
-0.04911893555212278
0.06297440601353754
0.09322047696616431
-0.005199120677936205
-0.00535850518467914
-0.014253977739521369
-0.03909503893902663
0.004239826007189546
0.04533714356126212
0.029399716462686094
0.02543202494595519
0.0633249456104017
0.44611755654714313
1.0883918989884465
0.4332509982694355
0.0924065699129899
0.03761545185749001
0.07605655400910133
0.0010722110161973351
0.013717735935478795
-0.02362694825890153
0.08654144749713923
0.0686149931630415
-0.050023241812977695
0.03281509746057539
-0.00580000488640701
0.015618557871490815
-0.04006757828210477
-0.09771404369725735
-0.0554302067020666
-0.027780232257370474
-0.024938786777670092
-0.1171745670960651
0.015570688571088176
-0.07047014515910659
-0.0019596905733281645
-0.05919434601305715
-0.08946484229152434
-0.002488455544843852
-0.01002538337609232
0.004726046407677313
0.07981124436744796
0.03548725775997665
0.09854819505845919
-0.0153527405949909
-0.036083354399236794
0.02293338420128099
0.09291872560613822
-0.055946577583290885
0.07000791876820234
0.023755070216758052
-0.022062242645411196
0.07516422274587314
-0.05998108239950193
0.0333789464813108
-0.009277561832947718
0.05587303098304014
0.01674602660960687
0.05485406332891764
0.002409650085158804
-0.021744190052633464
-0.00404416713403758
0.009148390485208205
0.017616764867161922
0.03411915589385438
0.0008257366791834796
0.0339824958089285
0.11094164308618226
-0.03619879385939949
0.0502329628591705
-0.034039327207435265
-0.04717238896988648
0.07177791839705648
-0.045038565219249656
-0.0012642286686654722
-0.04001061950930693
0.1209079098169422
-0.00141529260126447
-0.05503270435994132
-0.043403845942175494
0.10608223070447481
-0.01071077101305873
-0.004084283969983958
0.07422029869029788
0.06367574416414672
-0.043916011373679585
-0.039773619692771
-0.027645430859856875
-0.016355883102874624
0.041615322951371596
-0.004345517960022314
-0.015311140408063174
0.00025109972144757645
-0.028267010977401925
0.07779300754491703
-0.034838901999263545
0.0013387977732099022
0.030873346975183964
0.03374372582346145
-0.01945699037017076
0.05482289164841876
0.10715568287947053
0.09010827584556119
-0.1239969670770693
-0.004162755646065512
-0.03309265909499159
0.027806227461821976
0.052605729751683
-0.05746224242896458
0.0433968763590946
-0.0013244585899090272
-0.013120112257746334
0.026431850714059048
-0.007262034678388665
0.05664405262011564
-0.01969084237614613
0.06666946705030517
-0.0010592384472912827
-0.1188677037709925
-0.04015323639184869
-0.0052261525183168655
0.018479305469620618
-0.004933239174563293
-0.03486017131693547
0.08904716211281832
0.0702070538774107
-0.06035824055377448
-0.04211483989718367
0.01595671425308835
-0.007615599211930001
-0.13684722029417037
-0.03594800487619942
0.036652676763074064
0.005607148800278683
-0.046556118115436564
-0.027955862741902617
-0.011162647451086291
0.12803633177098925
0.0018108238824729587
-0.0361574773088166
0.0901547420681048
0.028984032152219147
-0.04026696032461489
0.0009667224085916532
-0.009579219541450306
0.027430774969758088
-0.06287131851950273
-0.05957957673578406
-0.012858424784911391
-0.04400983292789839
0.05086055726454111
-0.05142221087118775
0.12037280663338741
-0.007589613378991772
0.00657606744868202
0.017551311545198272
-0.0036452373562065733
0.058984748163662386
0.007278912886910175
-0.02607066945303288
-0.06825071302860537
0.019565879133461958
0.04571958405584448
-0.06336831576994821
-0.01905654189155749
0.04828407667566397
-0.042567674042953585
-0.043022918408892274
-0.007578988482486372
0.16576632353998055
0.5459293227016793
1.0658035799692591
0.45031817613428393
0.06702195209653258
-0.00892092526995087
-0.015325248191499583
-0.03883973106354632
0.024041166310807452
-0.08149058846733495
0.007480356322724373
0.0830931666728597
0.003925073206557358
-0.041610862845523934
-0.06402137443129606
0.018040413610277677
0.08681889916770204
0.010671753675333602
-0.016760075697668186
-0.03814946728648139
-0.0738682488850153
0.013624473603240561
-0.08007538873120922
0.045758501022892646
0.031354396721690894
-0.01080241121502875
0.03238975682051816
0.008635584865181546
0.031942927374618645
0.04473227341702702
-0.012751776231689422
-0.06481772280528611
0.11290029725962987
-0.010663559854472695
-0.02139991204388426
0.022199361169379202
-0.009664322636690351
-0.06289930453103208
-0.05959184881603742
-0.044517511237392914
0.017867080808662148
-0.034773771299339756
0.046775656020227104
-0.007748731940485408
-0.003933624801169116
0.002998963020303506
-0.05197009978942735
0.06376076000243634
0.015512680696354237
-0.008654671511386587
-0.026459492403003493
-0.027426141538234913
-0.05786196007909244
-0.06658084829716486
-0.06656855950925264
0.0531479987813721
-0.03832742987814905
-0.05381473176917785
0.06439754792252365
0.003034829843594239
-0.058688561166714615
0.028537310175279613
0.07265908028801002
0.0339006910829852
0.006909506269242464
0.02339440356369197
0.05974074755234872
0.08639909451774955
-0.04755220500921217
0.0011187716737101076
0.03022889075756967
0.008599215214638281
0.026484809566931222
0.11043082207710697
-0.01309107876146552
-0.07063742940501042
0.0925030633464215
0.08838968851555544
0.027163032468522863
-0.024757641226268307
0.04287607523048778
0.0016324305509759246
-0.015469269973986222
-0.03382012629563726
-0.0008129425245046034
0.02734494979668188
0.008208831437004897
0.04421578234749429
-0.010961801390633585
-0.02093003796592488
0.019371974112964603
0.004315072342540852
0.07420251521363033
-0.01732897672110896
-0.025114298995223956
-0.008440191106439423
-0.020658274586991238
-0.03151035369804323
-0.08160738174662302
-0.05767931519180436
-0.006010619452833946
-0.06537848293767512
0.028232872400093457
0.018499048424931917
-0.033494196939610275
-0.0026426343418211565
-0.009581381817394555
-0.09024077458528074
0.022247089513300455
-0.029874872990642422
-0.04873764469719938
0.03391049917768918
0.012160210662944017
0.045562323062543736
-0.005894374522467134
0.010765004356882837
0.03995782237355655
0.083816873234943
-0.015573725414220302
0.012404726482637171
0.02867841314114902
0.02827943781452918
-0.02565848534632542
-0.005601351134704408
0.028188280762936713
0.008801570718667258
0.09573192230029587
-0.015475365508286782
-0.039986548950932815
0.024225407401883114
-0.046918863400632144
-0.022922600013912376
0.004034218085736415
-0.0016480956615908997
-0.003020447473285572
-0.02817433930180309
0.018487199702333455
0.10862946806011847
0.041472134131698334
-0.09218705091655659
-0.020365623443243133
0.02659889180173417
-0.07479138467958045
-0.12107800830872362
-0.03624179110867839
-0.04043383843917052
0.08200395744960197
0.01777396790226582
-0.007230463413868464
-0.015796369024712806
0.02253290393920617
0.00990287753626163
0.022438656398085732
0.016158144473375893
0.0519576841002111
0.0016408291344991175
0.03893434447751501
0.017841895533386942
0.010122865294508432
0.08001822458595173
0.49672552784758356
0.997603383991959
0.5539375810220784
0.11178202652727835
-0.04518534165537654
-0.07733222403533019
-0.05689246013619812
-0.0344456466863346
0.023045188995723845
-0.030954426506212208
0.06132483997801002
-0.06132990582855439
0.03314638201886121
-0.09314557579731647
-0.055864553462272676
-0.04966570691518108
-0.05028663009442885
-0.031875116803494
0.03933400251308684
0.035880677114431825
-0.05034356248411544
-0.009810162085707404
0.022719301383457666
-0.009250265595189643
0.07885684902138188
0.01910003707241855
-0.04316164429996578
-0.03818841264925742
-0.048336483314760884
-0.03496345173522835
0.0010768379752724565
-0.011775301323220744
-0.02347875770070549
0.029090497801930567
0.017146465889718448
-0.07897850682479002
-0.06370094435409103
-0.049218843508235466
-0.040391250862236446
-0.03195573532424708
-0.02016691996513471
0.017821665432785613
-0.05619794433897558
-0.03822750646667407
-0.07919091509808986
-0.0460625773575659
-0.010390583015231204
-0.044854214289769934
-0.05158886027726376
-0.025623418484020256
0.011800486124950747
-0.045901231034697974
0.051092198340301265
-0.042316686737783035
-0.02082344437837551
0.05789372705498515
0.028719336515400196
-0.006948432573850184
0.018572055381761106
-0.0633594055805897
0.09032133548607596
-0.0607408729415278
0.010423630703545584
0.05615238851994239
0.01315053930076647
-0.0025705560829684692
0.056276519425315454
0.03101865949074802
-0.024346012191795705
0.0771213063960684
-0.03722154320152806
0.08127437551052397
0.029662150140817668
-0.019675358707900874
-0.05105537829145532
0.007996884804370528
-0.030881231287297785
0.0053935405612865125
0.038176519404341
0.044199292456723605
0.06943498239961063
-0.051251846634490276
0.012067480762269663
-0.07070042386533576
0.00019667748542949107
-0.07769874728560469
0.10592315906862425
0.06473797112560037
-0.07709117685430703
-0.03138532073516683
0.03616355319525325
0.011706812514828932
0.0009593131606941167
0.012577063179240858
0.04265589658851394
0.1004986759146761
-0.05663649083064899
-0.010240051128663857
-0.08994310886758516
-0.002573232156631491
0.08207445260781983
0.023676053735716143
0.038587811897713445
0.009074840316571724
-0.03590003162302401
-0.07674275787710415
0.07255307689885254
-0.022371475946756078
-0.009073014942134553
-0.09809968700880539
-0.03232508024720717
0.006594031402241289
0.017076692335168012
0.08042381475708854
-0.012615328274493492
-0.005334351480395543
0.07608713565231927
0.058675609823613195
-0.07039118615433106
0.07242337589998846
-0.0802417911848956
0.02353078112597473
0.03761821188225206
0.009363580338376386
-0.01877663127736216
-0.022381183486404124
-0.12363712544130041
0.007569583568421561
0.001624946647338237
0.07526418523792168
-0.013603528790683987
-0.02633115584084262
-0.02563636877058616
-0.041964448750430726
-0.022751117124658517
-0.051520271351213225
0.030677704128089813
0.019945241826164736
-0.07270143017601673
0.004725746829218971
0.05570199677494201
0.052883046725146536
-0.051978650190296384
0.06662848039471371
-0.02647376834863563
0.0010740361521836693
-0.017590626763456945
-0.060162223635307516
-0.03899311029247285
0.06224995551208501
0.06361131456051672
0.0340411157871914
-0.011266384168730468
0.1900616054854098
0.5494130230009402
0.9941480805262929
0.4022778224422702
0.14306328782665742
0.06207536864984834
0.021433048599144803
-0.09551061549224503
0.009912094034471521
0.1088031446088049
-0.007680198896175088
0.09818597713668441
0.03510714591813921
0.002364369983491349
0.07014489412802632
-0.03040582124927233
-0.061818937626791484
-0.06078142104268866
0.010380599715446422
0.022293620052297264
-0.03411184338843639
0.06097828497969744
0.00441760322909344
0.041470897535873776
-0.034079445484261554
-0.009098903156994532
-0.08827215660296008
-0.014055100323920173
0.011278891966998387
-0.028026153516618513
-0.003031870749751072
0.01195207981395302
-0.026743187895424594
-0.01322257545096168
-0.03655290779166047
-0.047062982313394314
0.0614739910652078
-0.07150375491423577
0.04269385086573255
-0.06822108044251103
0.07557279430946108
0.028763767959808086
-0.018685354632701476
0.04719607395289213
0.05435626301560044
0.02894384614936088
0.023697533654683085
0.011187835437836302
0.0708345606925409
-0.00124342854585055
0.006003165029560074
0.043113431808997904
-0.01591842740262125
0.05500102843614926
0.04459859448218917
0.14229814389534962
-0.006164852190618447
0.02992269512655273
0.023347367541350514
0.04050842345304806
-0.0035445560194766485
0.023235672578525806
0.007266178062904485
0.043000166225316834
-0.09608052317740466
-0.011926743980055998
0.10606391049975017
0.07703939036418024
0.01516686310051803
0.02961031447372922
0.02599351905209676
0.03153196632634572
-0.043826519337456536
-0.03327234237198409
-0.0325405930877054
-0.02223741476469626
0.07870156202044404
-0.05831665418592896
0.09819034476126608
0.020259723336184636
-0.05835168313175866
-0.028490887581542758
0.02192538515944849
-0.06461409406061934
-0.0174145591917173
-0.05685109435987912
0.03177477217616579
-0.056062009130424785
-0.07540052663605974
0.07320958651157027
-0.015252033859847747
-0.019650046385444486
0.023565287309389116
-0.001387260952801432
-0.04113464660243933
-0.030533694101680012
0.03592250818472186
-0.04820694646385121
-0.0018041929341673835
0.08339290026854107
-0.014874913741604113
0.061624307692191516
-0.050489252700503834
0.009224326390772117
0.0623033739433975
-0.02853028616328972
0.09586239438441307
-0.002688086907529967
-0.058131122754973244
0.05019703984918222
0.07925943687742087
-0.062351921571356994
0.022072563746507293
-0.033642669195588615
-0.051073833344243424
-0.04409875700319906
0.01050872629595894
0.06467375198138543
-0.0030460708245840687
0.021000112466059245
-0.027695849507705674
-0.006317667303686214
-0.04340692250171633
-0.09052869178988766
-0.025588510858867222
0.05646448555905323
-0.12473554074971045
0.055066341539548536
0.016435392096910872
-0.006928937565575387
-0.026266436312039405
0.023945852059617783
0.06992760167708258
0.012899518677910109
-0.010521065186987512
0.1349485464910856
0.004307668957162356
-0.08191752200353683
0.0163912581345893
-0.02941992335472728
-0.01765225742633927
0.06392266810000483
0.04388991603667261
-0.08810255135203147
-0.08646616943980368
0.007053792596875767
0.04862865085407191
-0.11230100291734718
0.048981224725006
0.1233024355407375
0.05931726023142532
-0.03965419359559626
0.03210344118952615
0.011649850919126285
0.0890902426540246
0.05676267369220361
-0.044948805338200074
0.12935674822617446
0.4589828225064223
1.0519081296138484
0.4873110824573509
0.09802878371045216
0.008471417749182997
-0.027557701392998048
0.005323077699879247
0.022944271371280286
-0.014056858328300573
0.01096771542169677
-0.03720098632885189
-0.06152938933958795
-0.0017047122210574206
0.050871677260801135
0.049241512530404104
0.046102935675068124
0.05049376621194673
0.009207589863987002
-0.027413188182408173
-0.01304607334406764
-0.00605408273387377
-0.03289921698177165
0.02964682113251518
-0.030601864513978116
-0.09248647351840539
0.052931119550762885
0.025515833785721476
-0.08626327515820024
-0.03239701696164956
-0.004812749132489725
-0.00015443368050942967
0.10523804493984473
-0.04796138868418388
-0.0510542764256755
0.06357373580428995
-0.009162786511886031
0.058667381308062365
-0.013294098271370009
0.06092936363025273
-0.013876489506796569
-0.006247199925141397
-0.05185806565257639
0.08639843051050194
-0.03768869798076682
-0.06385506189317279
0.08100625882955986
0.03294334127033853
0.07922198717005727
-0.03566090318114509
0.030258328279458124
0.07000522148095573
-0.05712897610635003
0.01632953952755155
-0.022658438591216988
-0.019661088477010036
-0.04105464818387445
0.02131192996157885
-0.01187755113126834
-0.04627224589142736
0.07099736932128163
0.0025724251628161136
-0.07835989630858951
-0.034253659042698975
-0.0740142882141169
-0.031315280523872696
0.017602306891465507
0.030960172409609923
0.04225655157700013
-0.031186776984700012
-0.017805424790042153
0.021987925647866793
0.043137485561214876
-0.007010114628100642
0.03210411717719846
-0.02800989459318718
-0.10745559798307394
0.04530843149513063
0.028173355300110677
-0.004867037948214816
0.008745004078818617
0.057825509285339416
-0.0004220567574817777
-0.14463662404523533
-0.10151739575679307
0.06693679507239107
0.029664907489724487
0.05679677329204402
0.07432079237130737
0.07142255911623878
-0.07046436991134757
-0.010088763991973353
-0.044254787865650985
0.008165569798911712
-0.06773850278874366
0.0021480452475629622
-0.0861251977287163
-0.017356153170437053
0.0729206516984648
-0.03410829057028737
-0.03463194889139737
0.006294332210529614
0.00910308681441633
0.015692479596803154
-0.03975230859578477
-0.030069012133323372
0.003416179193021665
0.049177542458068706
-0.036515292245314815
-0.009855080859377264
-0.0967690103890092
-0.02181347506432813
0.01007870103750331
0.04352036544913205
-0.03930928104436504
0.00858470744803185
0.013581382902629958
-0.08960161720242121
-0.0628528489751302
0.025121508686990465
0.0030257128015398413
0.004748043543449652
-0.046478400971865945
-0.07240206493712019
0.023938377495127734
0.008362862600069182
-0.09702816186217487
-0.004941842377914839
0.08904954063184314
0.029987179710362584
-0.04477001636787243
0.008342005642496956
-0.010289388514062728
0.08231798655416406
-0.056276309583133004
0.06497580542562817
-0.05968250910776779
0.016692196076844176
0.0322554444354918
0.05769231146534129
0.038417114082177684
-0.07621441285573638
5.776846012445631e-05
0.025560652698655203
0.054316009442988616
-0.056526954448820305
-0.04695554582319642
-0.07317644143672353
-1.7768238751821414e-05
0.013524216400172987
0.017726464419017894
-0.013293232693700436
-0.005654979653018671
-0.005265125936990669
-0.011629870520461492
-0.09175810838471168
-0.04782951501195762
0.026883447398089
-0.02222691125934076
-0.025041706450270325
0.06331506047344512
0.15376623618796473
0.46347909576681395
1.0745558211927937
0.49021867868955793
0.13999636694519935
-0.0017284605696382136
-0.03199070765450662
0.04009310312835573
-0.045107707513088895
-0.007862841266283605
-0.00014267997286463729
-0.019270684320413563
-0.06798524014511641
0.025331003043513236
0.04603297074776568
0.00821005286276463
-0.03803586296214922
0.10838204147994915
-0.011554251424560591
-0.012409769752075287
-0.1462606318794563
-0.062049227996621596
0.058025938479981956
0.1646454838079705
0.06429156694769922
-0.052099659742760235
0.023804524268462177
-0.019443987443786642
-0.01791581180930957
-0.06509300205427075
0.0259742638929909
-0.06342801315018451
-0.11503680108898946
-0.020467533997481024
-0.12796361497056438
-0.04040157179926218
0.029981098094792092
0.056588711120285975
0.031880604242737955
-0.011538091719810852
-0.02720583899515558
-0.04632800646549538
0.0743199009848658
-0.06293662786091185
0.006212061447151529
0.029675742441063847
-0.09926748256811253
-0.12076754448948519
0.029563439416188927
-0.07275499606906553
0.01547739566081196
-0.04378050521633575
0.013380576507680833
0.020159042741709904
0.050248452879319165
0.022152472467490466
0.01122581176247128
0.08697528813617167
-0.04885553902417907
0.002618624328458371
0.045521758816260305
-0.13299010802040745
0.07624609094057964
-0.008310123197254882
0.021448972302700195
-0.024659351795096526
0.022010843234682085
0.01327072100391119
-0.056211370738489114
-0.021991414244385214
0.025142703759393894
0.07353340847523397
-0.018798522261405815
-0.0645565481796459
0.01765885820445317
-0.015047905833589233
0.04012717752719461
-0.03728857042083374
-0.06804183227771408
0.07846702852683554
-0.023668908112431473
-0.04528354792403528
-0.03419758816596211
0.07051677751294703
0.1146636145635856
-0.039483676125992975
-0.0097387059766516
0.01609073685395301
-0.09315622538182594
-0.025540267105655323
0.09450345740585042
-0.01626502683734557
0.06318858009707765
-0.0033878063113759503
-0.10639402957497959
0.049602593980240105
-0.01741431144402526
0.07158861945179498
0.010105638937999144
0.00031772537350739367
0.023552409097560803
0.018995651694285506
-0.08670949530583322
0.053043077855808855
-0.0016486389902864399
0.0013565988873402736
0.020907753172587265
0.045205766805947005
0.05275476253583721
0.03329240688605077
-0.08730181371758891
-0.0035479200145335796
-0.04680116173280248
0.008961648320200846
-0.00993458297903341
0.10180017462561662
-0.06816124986754789
0.0005057024243664666
0.005656952690460579
-0.0233211680057188
-0.0011515068448418378
0.10707834983499398
0.018123785043238635
0.0755860341986927
-0.02349806368043025
0.038615621666125255
-0.04053993434365142
-0.0436012892137517
-0.08907417424116996
-0.05330061162962475
0.0027987680011472347
0.0773015946949317
-0.005822286501987812
0.011608045509356922
0.05728317015150754
-0.016181768481561436
-0.04880582641138276
-0.04310652421169825
0.05606357950914548
0.007226559798557403
0.007230649261343139
-0.044567651576481467
0.06716557087705526
0.09236649399096547
0.00866031104147507
0.0459084968188831
-0.03224332852413749
0.06372041586302397
0.028778753838309176
-0.06151833360020745
0.02260479391512986
0.022352540770029194
0.009082660007450602
0.12542494637647056
0.4976591835532631
0.9908324655085509
0.5124870253792314
0.08251416329703215
-0.032390971706601664
0.05551905800953975
-0.02867251208414138
-0.008041359996145282
-0.023986103726197694
-0.04351789913057778
0.07709015634850544
-0.07204978058460007
0.019863836551601188
-0.006539750040933473
0.023935824577999545
-0.008521036572334979
0.0246234185884796
0.01415345390332489
0.029431345781772263
0.08718048130895263
-0.0933432288276527
0.004063111991789273
-0.04968814864951163
-0.036230392680366146
-0.04760578205844801
-0.014607303147080128
0.056108345590243795
-0.018895616432696175
0.017295345703152276
0.044838734020159345
-0.042581266765345994
-0.039881863893373476
1.5913145693644267e-05
-0.09008942646765808
0.10046132340695234
0.0002822895804468451
0.02797927546040433
-0.00977034303435003
0.03180413735383921
-0.008715064913269573
0.027915642669104224
0.06483643790486375
-0.11010691209811684
0.033314319431554766
-0.026468502793678312
-0.0552354417234101
-0.07217684446805188
0.004881308293879519
0.014099156834559987
-0.03128707565192526
-0.0629163220689348
0.0057337113985338976
0.0034703567065440463
0.03006546320269505
0.034369761146278884
0.05822891173434717
0.03369983836872873
-0.08160903280333154
-0.0004641755002459158
0.05000045500386672
0.042402956889952846
0.12148685793925568
0.04445784871854848
-0.06733677943133876
-0.07900957989033992
0.00279757860092933
0.007545115461008088
-0.027419687300031765
0.038406418800534886
-0.1257128686022657
-0.023197785488013323
-0.1141457825427434
-0.03760018195728863
-0.017361331393501583
0.05256221007691985
-0.06109002439221783
-0.006832893515909072
-0.026198155467137735
-0.006093625205023774
-0.019404333998776887
-0.012671035953431789
-0.0325853720114321
0.018489015988511406
0.055118423079648385
0.0020932739296525985
0.10041561582886355
0.003927267110809232
0.040302736836114156
-0.037987327311984655
-0.005754972003262407
-0.01551996578823438
-0.06113271654577284
-0.038421765450540706
0.017867781957473555
0.0641955158843717
0.028075496695993088
0.01681112262237028
-0.042891013837804665
0.024275743354442464
-0.03162596286717571
-0.05861641785183711
-0.04495864770733107
-0.006002725945725762
-0.02699805227820016
0.0143790952772809
-0.01888918033910488
0.013892432959921736
-0.015553401557277897
-0.0024229717185522102
-0.049046414719136004
0.07176141542657555
-0.08152945024820406
0.12447278548436594
0.023691245919590986
-0.07813452636584961
0.004948241952233742
0.011118715820576388
0.07463116884394765
-0.06744349600765066
-0.06738387361187206
0.017240968069614965
0.009664846272460092
0.07336225281023807
-0.04990805910249493
-0.05400943257643775
0.09350870294420704
-0.0022783482867652534
-0.03727284703668634
0.03528694997231664
-0.1025414576401259
0.01891430650453442
-0.031597220393801445
-0.025105664926205692
0.06476844445955042
0.02145902562168282
-0.05638756887521909
0.002573323379212091
0.005850040156566129
-0.013106491909604412
-0.04801354123061284
0.011339765998838932
0.03504012653231118
0.022686361441548213
-0.0356416332202535
-0.007888132660054732
-0.11040574439759213
0.07991727535549809
-0.0300813006598394
-0.02600884735516201
-0.06572535933024669
0.04304557415064319
0.051403785777704304
-0.02848543857725129
-0.056891450349939726
0.0010231223542221768
-0.016467468575296847
0.0372156822046518
-0.006564425803307225
0.08987392064868979
0.533522200637878
0.9212004036892243
0.4844365568447474
0.10960870057029373
-0.02138953362557358
0.01403630810873559
0.011080191566887637
0.04395500027523558
-0.013717646348741466
-0.10163571863140558
-0.07737976046710861
0.02317841549590608
0.009071318492576867
-0.011293428207904181
-0.007664643328433231
-0.032401843246417907
-0.03222870765528381
-0.027352322095906025
-0.013962073772085123
0.006101230219573083
-0.0038303081164198696
-0.016375178800853627
0.034785306358590055
0.04345372534364512
0.0669357050059936
-0.009425373962950649
-0.026025097886776934
-0.0031822400740616204
-0.02742867934626298
-0.0007930603708431792
0.020350967739088826
0.005324884511886885
-0.008074513423276914
0.031932731029778165
0.08382274142996414
-0.035383681815974836
0.016715277589430245
-0.009531937118429347
-0.0421956677183005
-0.03597983878065324
-0.020322227012951156
0.07866260400566848
0.047657434093160415
-0.04466295481526471
0.027228914004279233
-0.048539876013605904
-0.03131552901343322
0.0656495860486994
0.09917125797164807
-0.09467823485112778
0.0015382224268002437
0.02038158529253946
-0.013727383922955414
0.0070306001148810575
-0.020280436710077482
0.031370019675092
-0.017087056837599004
0.027964820406951026
0.04927034392172289
0.04224409368817997
-0.009199607159547495
-0.1128447706325118
0.024493503978481414
-0.07228346942125581
0.023117113240448173
0.019134669184277097
-0.01036429901759033
0.0033411023787635157
0.07273975034716908
0.06477138961099334
-0.017570137140885886
-0.0944820823663254
0.07854726523589389
-0.07890018801354354
0.004560249709571651
-0.0036699999420837614
0.021767576437077676
0.06496534093411585
0.0030302212153632004
-0.02523639408681024
0.014232155528995588
-0.06815105347578986
-0.034202246412897555
-0.010579090053796973
0.027153976136770328
0.06931886269766827
0.054063895082321484
0.0460317734967248
0.0546051006533749
0.029456667581000847
0.00387598793607543
-0.050004734275764656
0.0015903064149604804
-0.08212429749724737
-0.026103121038711947
0.0032435319497418577
0.0029835781055890416
-0.031462595930198865
-0.08618894241109308
-0.02804508044696237
-0.012755688794979465
0.009461344345560018
0.034608619330294035
-0.015390536265799601
-0.01923928536881118
-0.031990533330731576
-0.0035157975677346793
0.046718297741763455
-0.052358540124945535
-0.09810190094022068
0.010460186996410537
0.05878629627368827
0.015306957061656272
-0.049571372508877165
-0.0052625269195153285
0.002777073406337609
0.035787239998222885
-0.043393320598324105
0.07867872943488151
-0.020645515167180793
-0.032966697785353063
0.014409094654009968
-0.06968971677082046
0.1028651625593426
0.023297703545645962
-0.013914292252259916
-0.04926892847818758
-0.009443060815160637
0.04860072735205798
-0.01912633678399761
-0.03775023946659068
0.03521518503935405
-0.052471320958795975
0.011700153201132846
0.0205965509339736
0.019197561513617387
0.021570584675481272
-0.04752729780428344
-0.009387697759406961
-0.012578882629507333
0.0068755942792628495
-0.08996156204265793
-0.06995595909889397
0.10802165250675147
0.036274265854432955
-0.010641522237660364
0.0037992468039363294
0.10090075260361478
-0.09370200339252618
0.005700974826437456
-0.017076574241887323
0.06213047155111537
0.028690947945101943
0.10820671232386317
0.040713651815064006
-0.02211801451954227
-0.011769031992432432
0.03424222398731806
0.07264123557716598
0.06457782278730179
0.512799554265267
0.9020305663029157
0.4853456674293281
0.18627996788020482
0.07594036099542764
0.037465734257411704
0.08895684974840401
-0.01308026598497816
-0.0032700288158332407
-0.013983365033516867
0.03272796703337307
0.14598680495625033
0.01833392805826114
-0.05705162941480625
-0.05515348007001948
-0.04355550741836911
-0.04058419415552164
-0.045034290039707395
0.010949806345683398
-0.0713289244127626
0.02449761463827551
0.049397792086702766
-0.031052046761570785
0.01723659965183846
0.03327887792236823
0.043917135014438065
0.0055100244382396595
-0.04738765480004359
0.005388443954780422
-0.00782721284579489
0.006992228381021631
-0.04957342439544365
-0.0758980003265868
-0.1008007940606692
-0.08769874709721617
-0.09112069612788344
0.05123134062027173
0.01255637799394335
0.0019940170814853712
-0.017138609487971003
-0.09566757266734283
0.019250283931455028
0.011319920114297725
0.0022909630332785796
-0.03840329230345677
-0.03460776534452823
0.026155919898308223
-0.03837235629684784
0.05314468842664162
0.07997631562057433
0.05594415357680273
0.004763858429530396
-0.004650490982246295
0.004917414439592437
0.03397139097745648
0.07274588435217036
0.027660475859649182
-0.08495111952101025
-0.04637918074431166
-0.007561907925909241
0.04930757431131566
0.11458171846608456
0.003608345334524393
0.03340189419556724
-0.07738101938024206
-0.035177069775440405
0.017773105118392515
-0.10262011340197946
0.012315133673451223
-0.01894195978684053
0.0022695942512092867
-0.0357469028542058
0.02616160725056293
0.052920636914614995
0.03728393567509331
0.0357670986846304
0.028457128997854825
-0.00086456772137946
-0.02189859255677741
0.04619405039410032
-0.04423649005691626
0.025037847946129295
0.023704439642254636
-0.0524963803718598
-0.04720546911721066
0.025517118926155276
0.010544265892352161
0.01796790691426276
-0.010756018118772517
0.07661363701503288
0.02944964370730417
0.06723497657368163
-0.01317014845618795
0.04993331495246334
-0.015765740087498325
-0.016459673254860724
-0.06114509748428122
0.022744492168488534
-0.05118373927117205
-0.030831932123906294
-0.06768681749309181
-0.09483486814543149
-0.004144692181353499
-0.0356889382564705
0.016515663499648222
-0.002567458283707002
0.05225865353285301
0.09631702711608131
0.05742454296484201
0.0015019961759588584
0.033644976178182705
0.06565365327052762
-0.025157908500776552
0.04475332570413501
0.06531860042536007
0.004117893346790558
0.02343358093643549
0.10228955514528232
-0.0312515565493699
-0.013458186387584179
0.027798690408756068
-0.044303367075013596
-0.0036782034529880742
-0.060942334793874134
-0.0946487499014505
0.012016989565448768
-0.06666269691248619
-0.04607921734146139
0.051192634171858376
0.008489155049663534
-0.0018482354159954136
-0.018607936501707334
0.07693543323770556
0.11192242298766171
0.030326247639207465
-0.13162744897148862
-0.0017268029478802753
-0.05282658700879568
-0.022446110369186294
0.024053976001401224
0.005287156817158796
-0.06851553750089875
-0.03461173841644192
0.057406492258663726
0.07946752829719342
0.0682497753756619
-0.06755171356632714
-0.017593247678995033
-0.036378869196172954
0.03333254373076818
-0.01471996310094591
-0.050711569394765836
0.07396750866363899
-0.02890862840715775
0.050556283118884264
0.06949179002693291
0.5393612839441605
0.9838241229625874
0.44801883324984976
0.1575826963752635
-0.03537440886904363
0.005478336022288428
-0.06496543390577662
-0.06890586973763449
0.07692174157202127
0.006989437734190145
-0.005288759494415892
-0.021132672771986317
-0.03890135212107717
0.029151163678683235
0.07102012141653762
0.040876458243072324
0.030534300733290644
-0.015693515743972923
0.03175022382720843
0.09744812875929476
-0.01329675608743636
0.017956060669890757
0.06801196499015895
0.09751379851173937
0.006991094428708336
0.04241079010892154
-0.012708125751160948
0.016220763314361803
-0.01215619103091197
0.058746457168253344
0.08381782094619472
-0.06031587703956386
-0.005248886286508249
-0.027055645660949413
-0.015946284893784964
-0.01209549264929339
-0.043398800888217945
0.013964523288981553
-0.058265620345133065
0.04414111390129261
0.014689948657752378
-0.05305777300179102
-0.055702146686754134
0.039099320738204824
-0.0351896628799995
0.07736686449096691
-0.10617230571196508
-0.05260673874333447
-0.01921973289168658
-0.0015632225518521056
0.03317224144315472
-0.010095683945204159
-0.01606046805842131
-0.03365188663874551
-0.03956219855524435
-0.03564547525033948
-0.0038905841696608157
-0.09231219261447338
0.026833520267874007
0.0034688975510259474
-0.005869681322867405
0.05688903127621551
0.029746341579740557
0.006381035615670955
0.03267952618026366
-0.031131507673928645
0.02967216870878477
0.04104862299317176
-0.12235424728413849
0.08849613884256663
0.01670471547341885
0.03053029335671162
0.054150481528654926
-0.006838696048288902
-0.020810479238008554
0.014988301844548494
0.1379685386179031
-0.0050283963910277
-0.0320359768376981
0.0671054603172384
-0.10434897992492886
-0.005465539607849234
-0.031791773285223215
0.031444558360402206
0.006811361464040203
-0.05500987580280067
0.032357492956945746
-0.04103060032890734
-0.002370181194530944
-0.0213571457182015
0.040728944524211774
-0.02294174643664473
-0.1545570206325318
-0.05576166307253541
0.0031588326917443097
-0.03298040760626286
0.059608971705951336
-0.05104227795294933
0.02883524394415729
0.040395766680278604
0.008807887927487204
0.020450487892937165
-0.006741180210580191
0.013776379508603035
-0.024303701403690942
0.011315215422280535
-0.01438990415398262
-0.014403649609118505
-0.03325335344983754
-0.010846406724950788
0.07543836977680651
-0.012068258788955288
0.04700039571633056
0.026191821274359775
0.012347629302791726
0.01429434703520992
0.0010530059475516826
-0.029101946249926836
0.08590321432766893
0.05289845586488177
0.0021549804855688338
0.00345556671423123
0.02829335788189277
-0.05290424393800537
-0.039139059854050896
-0.09384318425202652
-0.010575733709659375
0.0595763113839877
-0.014100819351973269
0.1095390034751087
-0.021780778699077713
0.008899247074488506
-0.013915916029924896
-0.11194989173221664
-0.01376314625264625
-0.042061811031046045
0.01172927065880872
0.06379111667813957
-0.017641827539234458
0.018568485696431436
-0.010669286308391998
0.044871383872963695
0.1140317663571132
0.074248187819813
-0.030812761605129264
0.06905031683515876
0.015011392104050288
0.061588476540280906
-0.051316331887023704
-0.0044331354918499015
0.008932346009135962
-0.0026957643300529258
0.11449231428631927
0.49450463610194506
0.9821788199206448
0.47713305957244617
0.059064846823671885
0.015416646316432686
-0.00712564048905411
-0.026977314570690848
-0.07493885758342284
0.026926807266746823
0.03378336061882517
-0.046880980285835955
0.005151349866135013
-0.02725713624051905
0.03591420018567378
-0.02478496656317195
-0.02457536044621358
0.006550687081605747
-0.021003629289788064
-0.02442982233556006
-0.030736669429076238
-0.02211463729929794
-0.018747059115283946
0.0006434051001916924
-0.00809774459010829
0.02472858490975389
-0.057672276067535014
0.10446011030495594
0.0011073127018697412
0.04856555921635419
0.02414764317291569
0.006033801559918429
0.022559306127122133
0.01698150063877143
-0.008784573453837166
0.11968700106766446
0.05573708932580589
-0.0797120647166272
0.05254563312709515
0.003540743317150662
0.08183194427890933
-0.01631729816365253
-0.11677912178285393
-0.01756117194143823
-0.08010396380192485
-0.03403632170131962
-0.028538007640381242
0.018884397158687123
0.012742725845174017
0.03200248929365065
0.02773177417912183
0.09706743720405053
7.974381698447622e-05
0.025710038453556128
0.044231533491388024
-0.032293260152297366
-0.06320678301966391
0.018420754361061324
-0.019976168738477372
0.039010791336293496
0.03671810344864219
0.04945543082657038
-0.03929276428650473
-0.028722050354550166
0.005349284888309079
-0.008907427270863919
0.022828899808614085
0.06800772706853613
-0.004986636033514116
-0.06777818263392617
-0.09767525506959225
-0.06460130796194558
-0.06624795322682886
0.03336154739324286
-0.0023973802765248423
0.0037372959043423916
0.03608212561423971
0.06814626162798963
-0.009738979436451847
0.03713683070403883
0.01760948621704109
-0.07786750482632247
-0.07421609934822292
-0.01699077314951082
0.00984555663839749
0.024029099713973504
-0.009883829218481091
-0.08481063049046804
-0.018391631030708153
-0.09187865193722249
-0.010233839315747558
0.028024802592044026
0.021442810802160053
-0.025112404739501555
0.020225584214853928
-0.0559903725732818
-0.03209192430453946
-0.08283792765311916
-0.026567400252824055
-0.03876588581382481
-0.02044302248700463
-0.013586855936605781
0.012468281236715041
-0.09817861246369691
-0.04299622745585066
0.04892065927435838
0.04978140279511112
0.002785723666567619
0.003862860489172567
-0.05636244188042319
-0.018670338552523952
0.041105647139000806
-0.062225187517308246
0.007234142366161239
0.027845283077119837
0.0023682230607208355
-0.007440926102473365
-0.007955142260282376
0.02502891852630836
0.009729731289807093
0.024723857560723223
-0.01834203100216999
-0.01603929181408065
0.027445639485535096
-0.04459371810211253
-0.05643441699395882
0.113641192365996
0.021135591773948442
-0.012282059326505359
-0.03473161491030613
-0.04594471518836409
-0.0024078308446869885
-0.0047699266246216815
0.021938503551854185
-0.06496079870900472
-0.0629230307029743
0.013001165706835821
0.01932479272932759
0.045183359355697596
0.0830814127851042
-0.013467002565681764
0.0335445947952464
-0.052030945112520224
-0.12927850576609853
-0.0489605930754717
-0.023957731286343573
0.10752998009154342
-0.08315074351534427
0.037053489639097
-0.029576485017224832
0.024883164234616797
0.0021152942654397394
-0.045736480788936384
0.05122343190561253
0.02243689110978314
-0.0007303160100310183
0.014687453198995623
-0.021225679962227843
-0.09664319080293617
0.005605286738411229
0.11133199011156701
0.04226428362225332
0.11465773615556955
0.5192717686510414
0.9999407493071842
0.38797738502706797
0.04742159670845511
-0.003176481040711792
0.04616819399036126
0.09153690947418258
-0.05381033603762689
0.032823567472377614
-0.11150880503453578
-0.016570763358381303
-0.0014048998097477578
0.0842643564107533
-0.040807781988174474
-0.017404526419085388
0.049617792109093325
-0.03667248417316306
-0.02646028218892021
-0.07207280099931153
0.031164867119026635
-0.07164926921547245
0.052618123090941285
-0.062409711075534016
-0.03786668733763813
-0.05862055811882203
-0.01414579013000021
0.05383015519165729
-0.0349259180117741
-0.049026016122451346
-0.0008828151868771572
-0.003316436196125558
0.03391794566668654
-0.06575606599212284
0.011898808057610288
0.06199375544739242
-0.05074593172339212
0.009528628014121814
-0.050853168700792
0.05476294206228149
0.08461059169496604
-0.05953663100138721
0.014580191055594922
0.01785761453644801
0.0066752577774885
-0.011318071773222391
-0.02856510605033416
-0.07828036923097755
-0.008113843727943583
0.0432074603853476
0.055180478490469746
0.008982259275410557
-0.04942565544093345
-0.06402538461975268
-0.030909060235869864
-0.09550501314754237
-0.12614779159284403
-0.06725549365936254
0.015595323886581428
-0.0819241439477129
0.01644528369565065
-0.04134662341442785
0.060139319785434145
-0.030041408744602285
-0.023094821887382638
-0.037515777137634015
-0.0364715181055443
0.004395304095308068
0.014342858682101826
-0.00228590081854322
-0.06365729217220843
0.020337315279870642
-0.060496645471717986
-0.05439324018115854
-0.02833844525546656
0.038756709792519384
-0.05693118056426556
0.01837610793850234
-0.12842529307046222
0.025276753719625285
0.05226052568173935
0.030387256982004826
-0.0025154314047387844
-0.03478293681386367
-0.04706148979844135
-0.04231197048527114
-0.030061075540005328
0.04674862989940707
-0.006038423117022586
0.03919206763580768
0.15216261738538706
0.08263330775295935
-0.000778576777296572
-0.027991051834604597
0.04166397375264541
0.04158763301976326
0.026894374562212643
0.07375886945954252
-0.0472207006878903
0.014318891451933583
-0.0018491926908838629
0.03410738933780504
-0.023043106495124133
0.0184135234351343
-0.08939950103509273
-0.0009867256309285337
0.08559692185449627
-0.02597366426731082
-0.005086919526628739
0.0534706002073775
0.02354882793219167
-0.08557419222960981
-0.007021125048461488
0.01916558999709789
0.06834499024204424
0.05895917900169211
-0.0032129462624832534
0.03176739703835742
-0.00391161413594978
-0.025162792989639766
0.05479434868019735
0.0514398683343837
0.013454255462371782
-0.03266150683966714
-0.0013387351178340882
0.0019438954694417623
0.04611727785122394
-0.015272654496052227
0.0014182535925030884
0.009350777191115715
-0.013481334232979428
0.01280871186568117
0.0055746721244523565
-0.04079487886057191
-0.02779497393540613
-0.07042451502823409
-0.03694714160800826
0.07132946869370654
0.033080699030321646
-0.0401479284409977
-0.009583186563426518
-0.04348447859858383
0.03630699425718078
0.012589164874081541
0.034118326395716304
-0.01578048690708995
0.05004104748979389
-0.05958249593412192
-0.02964816644524655
-0.019902386248923563
0.04010323796077441
-0.0271673466214867
-0.0483081737552102
0.0004646328889614546
0.22185395438403827
0.4511869417345066
1.0619388846563884
0.49961529158627505
0.10028448886336946
-0.03013528606678032
0.03126317481978435
0.0519219514225638
0.07525097633860735
0.014284304809476046
-0.03459815030577849
0.08937063005113158
-0.02264551389339909
-0.03860876925934101
0.014460893631436447
-0.048191091512498535
-0.024974936874989882
0.03132791926171979
0.14363731229281004
0.02827282061978739
0.059242764092587344
-0.02535431186016006
0.013353191541680482
-0.09589547361578024
-0.0666243245263499
0.007823533954623716
0.01768616880954391
0.04224104779108425
-0.009481158449904289
0.07544614609253007
0.027517029768521092
-0.0906600316053208
-0.0905653651118414
0.006428453643742643
-0.011859640258623537
0.011077563032874256
-0.016804200706461363
-0.030018780487230237
-0.03673341346652306
-0.0028564995437748595
0.04198395504494062
-0.05381042948425623
-0.006933403850253924
0.07123379728921202
-0.08706100239722941
0.0321261432162773
-0.010422208083129252
-0.0390112267788614
-0.02771628935436737
0.05164338869350185
-0.006511679507588227
-0.05378782793758949
-0.043326395037346505
-0.02495174986873746
0.04339234287085459
-0.02512888999177276
-0.0012387502054531938
-0.034570275436635996
-0.019924717692140236
-0.008094283736175639
-0.04651899131500848
-0.03905741666903691
-0.026073264144584326
0.07508265316670999
0.0030359543451338785
-0.04477265269339642
0.042189820532340785
0.04485065520486688
-0.04581062170023765
0.08125107978967837
0.019161255995215724
0.02098996527867055
0.018051842676033363
0.016882704081519487
-0.005766860386339792
0.0324812903281528
-0.01651436752943752
0.07867180863114098
-0.09965089111120434
-0.04549838680978741
0.01776725048038191
-0.003975232689183566
-0.025137938688961727
0.008749273304047742
-0.06072760753946162
-0.05181351900007866
-0.006356069376233033
0.019194903279187516
-0.035828262721912654
-0.08991776020842679
0.011485903815147351
0.024281639655270595
-0.054568067770571466
-0.01962872494531817
0.04549453680916454
-0.05794160436208558
-0.0016251648749940027
-0.03324523071935449
0.1092245901061016
-0.061354869366943246
-0.09121193744282981
0.03031247629831965
-0.01628304667772125
-0.05152683821293763
-0.024583387453342556
0.07579561453130983
0.00015003208899343624
0.07323606639372349
-0.0619723967374308
0.05435634317966648
-0.04842345790774603
0.06134209705847518
0.05725920500024623
-0.04974195414165181
0.021117229297784965
0.010344881796329183
0.0468057487358774
-0.056630611821516685
-0.020327159793615678
0.0024005301668602783
0.07523462748441397
0.00298510380350603
-0.048547762105007976
0.016051760286434198
-0.05075664791589586
-0.08431553281394237
-0.008082906870222976
0.013888404456269555
0.009639341439279569
0.0026737899525112107
0.08928318694810707
0.07756572376496401
-0.04121346265531301
0.0471654663713861
0.11309620099324813
0.08791268178736436
0.050398289271159205
-0.006699070567227567
-0.06522782235063766
-0.0480693873634819
0.026416130998044664
0.01472153370147904
0.00343290966779325
0.04550393379828934
0.058496053970861175
0.05842528517045022
0.03681711135973211
0.02586621255770289
-0.026328156449224833
0.004269462595778332
0.017979108489791697
-0.002668754099496162
-0.07952981381637736
0.016029585585096318
-0.0028848576657321875
-0.006905629495847405
0.02868320903270917
0.02765390773339751
0.15968613148554803
0.5295651367509813
0.9808018827112901
0.5661700139128749
0.1751911697390294
-0.001050123735792609
0.06245785313599522
0.008170308572160192
0.057480841111372305
0.06617829837648301
-0.0316461534902817
0.06999329723302962
0.00226368650121316
0.019492821821175465
0.055597903681208864
-0.012871104447771873
0.049604727017271553
0.008346659423319766
-0.022714200935567003
0.03217124286813855
0.0626286071748168
0.005277066230425138
-0.05068143437372805
-0.016110207834072274
-0.03533581026647469
0.11375669681350303
-0.04370236743014383
-0.11374344220013835
-0.019244116599216935
0.009317809705573749
0.0016460472016931538
0.008992855376701825
-0.06398690955339327
0.003081912635991595
-0.04952649668300195
0.045263456390834116
-0.05716218121174913
-0.0043144000855817695
-0.039727572473200114
0.04762286791269801
-0.023510650656509174
-0.0525118217535433
0.05272480160719126
-0.09965123584260567
0.03460839398275003
0.016843541998975538
0.12612489708115984
0.03253368676464071
0.02503006685746529
-0.04257880628712127
-0.010970940526356422
0.013107193832921225
0.07110401822629081
-0.038454266298734725
-0.0919157537319371
0.0036150692572906313
-0.07966924243813173
0.04047428299005411
0.07582039025367635
0.05154222098551506
-0.025175909013713155
0.0810202992275158
-0.038394448925880016
-0.049132207905045626
0.07147900202567123
-0.017775751168029885
0.007953436621599181
0.05073125820935903
-0.05497377580917853
-0.026717841972372314
-0.029384216387081358
-0.011653708788647769
-0.035522657349488805
0.018595130376667594
0.01796313515475031
6.12430984657713e-05
0.011442651696832312
-0.0327340944667931
0.0010571974142806963
-0.08425576026229104
0.04950009199275641
-0.028044307826885974
-0.025900951416325865
-0.04673212959771689
0.007002192807837794
-0.026690068037912452
0.031479668945964594
-0.052493044444475334
0.006908282789564605
0.021281541810413317
0.03984365724467325
0.03333668245758048
-0.045348811820428755
0.003398453044930987
-0.0052072279467263545
-0.05238512792741375
-0.0013313941657502424
-0.06970248305843284
0.01176216487723277
0.06029799185750713
0.04993703936591374
0.01956750682482972
0.012925730224626054
-0.0057384678961701395
0.10802181009017037
-0.010699752454077664
-0.0658343405394534
0.03814852670292573
0.02305141742671675
-0.05520592039584324
-0.019848195233400912
0.008453212599516768
-0.0282311259792664
0.04587599031418109
-0.038899667228744876
-0.012569407352037865
-0.021061015313543204
0.022529003827851963
0.03163330008179837
0.02245286150394136
-0.09233913275824927
0.00815748441868156
0.023863758451410675
0.029611395831317402
-0.008873681832561224
0.0011788374544516964
-0.028432503388835236
0.06389824994463839
-0.0670739684931274
0.022582370603766447
-0.049757297465078267
-0.023978501788746755
-0.001966613901613529
-0.09929175887206501
-0.06965844076344105
-0.08006515899501027
0.02130002684466644
0.051178386624910734
-0.07979500360707491
-0.00889848262840292
0.013726514715286381
0.013516547653643109
0.10043045341349094
0.007679291220895334
-0.046403327504666025
0.03743810615870365
0.07956300687421344
-0.06508551070110316
0.02670695512118096
0.0014260109727327326
-0.047644462833804316
-0.031925847173118
0.07958136965548418
0.03863120104621687
0.12125800452170994
0.4254051076544917
1.033713100564361
0.5558148314339136
0.03170609216711036
0.001087475777103083
0.05040722846934727
0.04366538501073644
0.03199853552850534
0.0022197461549456807
0.054283099281608654
0.008063039369137253
0.027625885731204204
0.017164486109089678
-0.05315747704201064
-0.046081359120673404
-0.07259996116164011
-0.01911847201418717
0.040592360382013956
0.016948548542195734
-0.0016244458192511348
0.06794463235776917
-0.015164517005030402
0.02794590736295979
-0.017046058641837954
-0.07487017112925941
-0.03762737041921167
-0.03895857444391032
-0.07107519183079875
-0.007606928327683617
-0.03710444141851581
0.07487496985663201
-0.011712831855177804
-0.04185318240595303
-0.05439690104122746
-0.05608371192584345
0.04388174759548137
0.04825305350165463
-0.09985153568913618
0.10815111132610428
0.00384805717614747
0.051111402216207635
-0.04012233364785198
-0.04921250820730619
-0.012418456560488221
0.018759616245362667
0.010947726050903281
0.05847045937169859
-0.08842067368870675
0.04535396937738944
0.025695274463116504
0.015606648650967538
-0.06735381198985686
-0.039923510567453274
0.0318942687021943
-0.12280653650606521
-0.0948275306126854
0.02297603868474055
0.028116227058537842
-0.037257108450783144
-0.03740027558502121
0.04756980443502018
0.044342065127229914
-0.01698701672680993
-0.06141136245028555
0.07375534343008149
-0.06434816263203658
0.033798058234019046
0.060017908370387056
-0.0003366888056633098
-0.029434950919794013
-0.08070965724854584
0.0031187907951273877
-0.07314204580228605
0.015338788642766396
-0.10128803404626648
-0.08383850881803102
0.006574726172806885
0.04198328720162669
-0.01421642787442663
0.05253553929534636
-0.028049085373064376
0.1088846163054182
-0.06654001901709054
-0.03564746502294378
0.06756372690756102
-0.012916028729699961
0.04748167213262994
-0.0661039651685915
-0.04762529390540629
0.029898756414344443
-0.07188570650034586
-0.06066373180587595
-0.005562409948952401
0.065888750619693
0.018359445644962648
-0.010413180432174504
0.008229803790212166
-0.0869960380523283
-0.028991926661889173
0.022046146026557426
0.011855051655382538
0.030583705983118843
0.035074441017415046
0.011325007180683785
-0.12570084780455207
0.01682312231187277
-0.024332554487328597
-0.019329562064986306
-0.01860361632241855
0.014588858376529025
-0.07349158445896414
-0.08579583614313951
-0.06190431039423096
0.04597691906633069
-0.021858672082914324
0.025274649233196795
0.02399695166442855
0.019838468305319504
0.02633468838964061
-0.02611369989059244
0.03344059735410578
0.01909193394292262
-0.07930883792494159
0.002970486506685317
-0.007466396778363391
0.023144182098400638
0.0012848560380918463
-0.011983024375735665
0.07781706331479767
0.030388833488051478
0.002032106033622751
-0.05592752413029789
0.0060307282503452185
-0.04266253088586408
-0.08264540731195366
-0.02033080719174632
-0.01723733208014429
0.0514858267409173
0.04867544992182421
0.03345980773608012
-0.004391707684810324
-0.003705493185142426
0.0277665430742568
0.032163108948336905
0.017822629955482307
0.025428068055486114
-0.0033931979826033252
-0.01410864361748126
-0.11101805306961575
-0.017003301885533794
-0.036130622265046305
0.004873906031439168
-0.03381801118016253
0.006864713889945854
-0.09323017983214182
-0.04819033466533566
-0.0357574362512068
-0.05249683797746401
0.15589564513160972
-0.0014636999679757123
0.5337700846779143
1.0498006188321076
0.4779257551146796
0.11660077378136849
0.030522834546707164
0.00678330807569454
-0.08827814256279798
0.020355574218754908
0.048556963441960616
0.10318096913896242
-0.068927806982708
-0.008614965961317089
-0.001418428140158974
-0.004981295852311287
-0.08367374784249738
0.05509841922117575
0.04983907803463346
0.018830413825075425
-0.021273927620018864
-0.010776668370043789
-0.014318572558391971
-0.06954090518618387
0.03504451014397721
0.001194639770470989
0.0343352890743693
0.012941441583844044
-0.05027141034500332
-0.04626393829605499
0.06568598125677098
0.027986077161907087
-0.019007619348408437
0.028019204080359197
-0.04356975987983771
0.054284631145137645
-0.06787579874620962
0.009838813513349988
-0.0068272775953202
0.0006504553604936779
0.0325575116700569
0.0500526908414543
-0.020607492015077264
-0.09957117444914243
-0.0858388490334433
-0.0191017202043297
0.0017137279959442671
0.018765922314236478
0.009566324930347132
0.044525652257738024
0.09008077533961575
0.004811277888894777
0.018043359744503315
-0.038260830883007906
0.002743722433637575
0.01034371220269212
0.007699397963524027
-0.03753447995279176
0.0082468080592644
0.004586400255298219
0.015839449280281418
-0.020027447513672983
0.0005451780669309367
0.10885574371607834
0.0027263182883684074
0.05354877396758232
0.0712735668932629
-0.07262643514798899
-0.00996749756152706
-0.007699791050182772
0.10070920494555191
0.09414935664566049
-0.07268323053281722
-0.05028935394773135
0.061270797330929494
-0.026120974690784022
0.0324241578068666
-0.010947149270571504
-0.053558937293539034
0.06522357922473093
-0.03635102341618618
-0.006482718256730618
-0.05672852382711814
-0.0555318279002314
0.002957163154800286
-0.04757222501257845
0.07537586629245434
0.03444945880246579
0.03967418448572131
-0.014645785871510851
-0.013266039301012535
0.02218440842633491
-0.13520631802341093
-0.022764995860463516
-0.09102276072265458
0.011365897366692971
-0.057830959104325036
-0.006046525012661801
-0.04436766128970103
0.07137491891837745
0.11305561988693309
0.04584502578124095
0.04864792090208009
-0.002130716399871802
-0.03140614231103936
-0.09635901905076832
0.009095197081558896
-0.015054772410332568
0.011217646276618023
-0.03554092435151167
-0.0745703206710171
-0.05794336871946039
0.07658315298068714
0.0967669041523076
-0.0785840112704284
-0.03351997352189243
-0.0873188043697033
0.003062663456873389
0.004360180947546949
-0.005791547839410594
-0.025185659492686027
0.012258679988585859
0.032561730379363836
0.034690504744312116
0.06100038810824785
-0.017454605175078207
-0.029265749244549333
0.04763991602035242
-0.028103847346912614
-0.01067844579296525
-0.027380886371933713
0.0849041784125901
0.029244068537816165
-0.056725863767061374
-6.75453794671141e-05
0.020262662440470848
-0.0561490233361627
0.01771529879635401
-0.007544982205237565
-0.06125857703940471
-0.0673452836070815
0.06844198546965016
-0.04193909272319454
0.05040104483258149
0.03283365346010515
-0.031168714381578085
0.024948426172608007
0.016409056317722992
0.045332656928868356
0.008739832233119985
-0.016596027046323722
0.0661856966215207
0.036548771815927805
-0.03216397558399295
-0.008820938829321027
0.16498586269040072
0.5749346478435766
0.9910894335322659
0.5243775860094196
0.11804431172700036
-0.055014907986096886
0.025489479048340764
-0.10761527540935373
0.04548604937955062
0.026041538811649192
-0.15129006550702467
-0.04824221041457395
-0.08806612718504288
-0.051264886468350625
0.006685378707415201
0.08711371920193149
0.02584521419164848
-0.01899320049184494
0.03587190804217091
0.030996042734067697
0.07233213766135331
0.04187864753784188
0.00027939010683852584
-0.07531263036465069
0.06748288948172299
-0.006205914410163384
-0.04443143429532831
-0.09921384869594613
-0.05747693095702704
0.0201184084220028
-0.019471012510221708
0.0495888192991272
0.08097684732519628
-0.10674285822508969
-0.050889430633192345
0.006933567626643904
0.0740152220108579
-0.04188996707195214
0.011273931316215102
-0.05451807718875723
-0.004205373480845611
0.006894106814941492
-0.01624933486766431
0.08188666992611873
0.059512452107935626
-0.015958694741396037
-0.013037153766128419
0.03985649936087045
0.002379667187746808
0.0006318629800278458
-0.03435121024665575
0.029940268501070233
-0.03199004128734372
-0.03200580486075792
0.014457572470824033
0.007024734187155214
0.001689904273638613
-0.09073971576771662
0.011900829430148523
-0.1003641398096772
0.05111525159422699
-0.02767746493531198
0.00794838691675973
-0.02904827041909204
0.01538935517608711
-0.06025201537509787
0.09255121129023719
-0.03433291434346734
0.04380276905543163
-0.05573412631541667
-0.019630962767099552
-0.03750071215042119
-0.029859680764753507
0.021154771215895405
0.023370515926263127
0.02038107976808888
-0.04361330114409623
0.006481846707584828
-0.04232141283740244
0.07331722867046567
-0.04627554000736922
-0.023600789308072256
0.0029030978189799775
-0.0510690130153044
0.03168136490826171
0.055704225591202874
-0.044160117743505374
-0.03393463304633461
0.059700101329789715
0.007235720965603327
-0.01102164177921815
-0.03810629264669114
-0.018455348982630376
-0.007323024116787827
0.03197507319908819
-0.00013648536919867442
-0.045508390693412434
-0.02614176459181113
-0.055902165116065716
-0.006622414316503077
0.11270934738789647
0.12385214140605971
0.016363587992510434
-0.08263950436826249
0.04630390122776455
0.0333629916591215
0.13435218792495116
0.0037292616264522553
-0.02125758027198204
-0.049924238752481864
0.041121374868838434
-0.009393202484104456
-0.012806281555827543
-0.025165630400415293
0.11000386291877469
-0.020613532639583012
0.035022396912791715
0.023111812926746148
-0.11115215903684761
0.11066229288063861
-0.09264044611521229
-0.045053826483910896
-0.025398753872726294
-0.03626178671426364
-0.011451132696143222
-0.038600880506150174
0.06783179900357894
0.029544569804282512
-0.031036222294339968
-0.04183266719071328
-0.02824651546782757
-0.04526052033404995
-0.05994742483663645
0.046770823535516676
-0.01950790290241124
0.01975501643066881
0.00325177264798324
0.07247906658292244
0.04476635442940036
0.018086429482091444
0.11476753890100665
-0.03525734795213216
-0.009386083649964407
0.03265611831139797
0.042216592743622626
-0.04393536865367034
-0.0016957312742666845
0.0011105147312049527
0.11652898396824762
0.033116852427169344
0.05403702225080799
-0.019425135907547967
-0.037522990875274435
-0.02118771749302953
0.027392451149054975
0.07376035223431157
-0.07112329894177613
0.09904503739163567
0.04431736569803562
0.05005212530164315
0.046708645384534175
0.07969127788001872
0.49361026304547784
1.034022838355519
0.4875062099304676
0.11170483667780738
-0.0331855959775251
0.03864124438557823
-0.007043000923281984
-0.02023914763168695
-0.041280011567517316
-0.033252611686586546
-0.06601667074250057
0.021156701766526648
-0.029905816778608665
-0.0021198367425201226
0.06075746012506411
-0.005992977139997797
-0.00788498542827591
-0.002535458212912088
0.014632780009280352
-0.023385295167194575
0.04260266678505023
0.006503625303356921
-0.027143862575994018
-0.017151387293159553
0.05714916974824929
-0.032871261968896774
0.02099949261598011
0.0238980766769823
-0.0537521349023887
-0.07233353739049934
-0.01614552844498027
0.040275128978493425
-0.07353580493556218
-0.04362382344347085
0.03362521102692148
-0.05343082827202921
0.0511460576439039
0.13254654648915742
-0.0407721883055039
0.07362887878535157
0.016395763584217755
-0.03959520379241693
0.07963126375850091
0.020338530236902796
0.059506065184979806
0.1172838144524743
-0.005376427837623767
0.0276318592767123
-0.05576859108901382
-0.023258667504175795
-0.004073225280749494
0.010580213791145215
-0.10644052529998423
0.0774332179720937
0.03170494076357107
0.025834356016304707
0.10243367169008216
0.08105457160488222
-0.007567934571470829
-0.028483228868152168
0.031148098582675678
0.07757808179423682
-0.007431539433339402
0.04446653470948662
0.08531747992126461
0.04941147924348291
-0.07974764285550917
-0.059738653246938604
0.09915159707009369
0.005490215761683682
0.016504192439566422
0.028404283422486312
0.07159802744428742
-0.03914321764630809
-0.02063766961059292
-0.05026825987666962
-0.10320086363976684
0.020501977235358446
-0.04329166401152351
0.04812757056172365
-0.030333814237375908
-0.06733301945561238
0.052711865125877035
0.02614449606773129
-0.0082771385996321
-0.0054718294938294115
0.03003869641370462
0.08508140044422671
0.020085768870716753
0.023491092401288407
-0.022851016741639255
-0.011812462398111248
-0.16573126228732257
-0.047160231475169914
-0.05325419405986684
-0.0545968577595409
-0.019094955172934497
-0.013787835181746045
-0.05325571374085743
0.06292715759315123
0.029949613962131496
0.010315589018899701
0.032276961637134165
-0.08596176616730687
-0.08737663966555771
0.06091038227622284
0.11909102187719162
0.0027252108781769414
0.11252235498558275
5.851753225558701e-05
-0.035431733306185646
0.049013073504252415
-0.10753651497246186
-0.029369004692537184
-0.04137954239894361
-0.059989011733442045
-0.02492185282664561
0.014522670650370939
0.06557329648158827
0.05207679851976915
-0.07968484106781809
0.11449424817085006
0.062317565086601606
0.0020245296452698985
0.06727214099710781
-0.04606503319406248
0.04223013776287214
-0.09672951658019718
-0.01536102237486285
0.06821068520813615
-0.022910067873503803
-0.02071650991602252
-0.03020316118968356
-0.009861117459727587
-0.0505889187703668
0.07909832377310055
-0.05995565581459408
0.01619557850986422
0.042279280109609546
-0.036791225735859676
-0.07280895471103041
-0.028900565600362207
-0.01978979261983807
0.045943195151643516
-0.007392880112485286
0.0001252599347475793
-0.07026334767152079
-0.009690727400872503
0.07182387010711598
0.05481179484809495
-0.025150557983333162
0.04150805252210939
-0.007004856529315321
0.025210072995078353
-0.014727108898328713
-0.04833131525097664
0.049118521217631855
0.5263467259780669
0.8676724298825959
0.55322075949239
0.08798251064010763
-0.03212359178423175
0.04993644031998129
-0.13833964810672236
0.023106480529331987
0.08203457307293709
-0.06859024355639166
-0.022725479336996902
0.022625683962400712
-0.07853599859492805
0.0123036100631035
0.1343703673753084
0.016358606660949054
0.014703288559122197
-0.060193015231423556
0.06648650061885594
-0.13627534841840763
-0.0018313756736736732
0.045789506871956986
-0.1249924972312432
-0.10071329526901557
-0.0738736884923088
0.06864475524930987
-0.03182490952819183
0.04482712260621356
0.03676093124547062
-0.08302927826777634
-0.019471098136267823
-0.01140147471548087
0.025552473030127185
0.01138576137630008
-0.0032837037880721017
0.0582375361239201
0.05751822684827687
-0.07241078666755323
-0.022425772420438302
0.001586899378552462
0.004229940980303863
0.027536122199967518
0.01865628549904445
0.029777184036824073
0.03565652440233041
-0.014147399195433803
-0.016860704863910666
0.06974560676514571
-0.02481800256844884
0.036988734150594026
-0.03778141252410105
0.016731597154516487
0.02035353599088567
0.0324481551214202
0.07951447642931521
-0.049962736535963496
0.007461553164010569
0.033116019036811266
0.03325133538549486
-0.015473259795203469
0.0192342394905544
-0.0009463804424256922
0.03699905997983002
-0.003939534430535801
-0.003197978137042255
0.013550698647343313
-0.024957609950575665
-0.0379608688991484
-0.0663173120421755
-0.006745309105695731
-0.03674669360694991
-0.01481767876479996
0.061914513846379894
-0.013232972159660584
0.06288818978960509
0.0192731547102305
-0.014079478350077893
-0.05100199397382459
-0.0056710235375950335
-0.020092983916287537
0.059211084748005786
0.09844073652849555
0.05156196217994104
-0.037034392349962995
0.002742134545385763
-0.011340241621365106
-0.029466603955208528
-0.004548203192737874
-0.006615778036622749
0.09183451521594249
0.01644537445296555
0.04129515153179276
0.05242017067020101
0.03776185512459415
0.06824317805125277
-0.018579124199577246
0.047976580486614996
0.09809615071337152
-0.036046077566769474
-0.01698670914857828
-0.02074201365007543
0.1077776916705391
-0.05317432574298417
0.005515898428209215
0.02460719240834383
-0.02746344564343131
-0.049573113753638764
-0.040991387119245666
-0.012522061263024756
-0.02673517598112182
0.07216464766552984
-0.02629987532424166
-0.02679256260569506
0.019723797822572185
0.01451747664060215
-0.15935854019042378
-0.04345982051772862
-0.025267463622787756
-0.05056713375779699
0.04812069438576961
-0.07479040523614466
0.052550473534825004
-0.105773875513546
0.004048187826343821
0.07820684718199908
-0.02973755518797528
0.0011708073537833787
0.05138336455604595
0.04996820037699402
0.015117723978030878
-0.009095681928054366
-0.009606619862147558
-0.06950442984819452
-0.05124164424192203
0.0018019178968793053
0.013674184141486771
0.1285390299145878
0.039036939349618105
-0.01744514162731291
0.025519845070761667
-0.08819278969565753
0.004223054564893989
0.034235244899145235
0.03466282908995837
-0.003312224351034638
0.02849132268965915
-0.013440041741864393
0.019785574168382294
-0.04707274169946231
-0.056443673099611305
0.06318212705410486
-0.009264841506228088
0.022109767508877266
-0.039237798237245824
-0.056317687751847895
-0.027239394675832182
0.02124352136736318
-0.0031416593514083935
0.5103644359163862
1.0340513412798205
0.45589206413675115
0.11207161507832121
0.008183457679906851
-0.04334262587751159
-0.00736472303567423
-0.0007049899107017252
-0.04354521979944492
-0.01740394910476568
-0.0011712582007867244
0.014349371028931619
0.09448067622980683
-0.04841087198983021
0.06767488885544706
-0.04487482523233641
-0.00012519919728950704
0.045959227456532616
0.022019488736343486
-0.11773273101657145
0.054280447711781525
0.016165788184416715
-0.02780951374087355
-0.006541865862820362
0.02136405598767683
0.029304000290377025
0.02747854844361295
-0.035754499819810596
-0.0006126490009044508
-0.04215829441776182
0.038314097822045104
-0.012204604964675793
0.021823371426751247
-0.0256971829616812
0.0042843656779346815
-0.009587581016635243
-0.06068862965122283
0.05454302974774886
0.03342517258101905
-0.06345799314939853
-0.04097254726879871
-0.029731710500156328
0.06585189986211501
0.043356631187159086
0.01082856769062674
-0.07907954203031854
0.022825882333363023
0.008451793614074898
-0.017246543702241345
0.06608784071331066
-0.009996384972974963
0.059047570357207035
-0.018377312295813773
-0.042777201372169615
-0.06229668124532246
-0.00399246155023215
0.0022222014547308867
-0.04773869010136372
-0.045439035482252636
0.05878114032897669
0.037107242623978846
0.09153700290923966
-0.08085368595348838
0.0854077549079869
-0.03936344617836567
-0.06576525071095252
0.0125131975901501
-0.09298930913897503
0.05416430344548974
0.008602260866406971
-0.035177208959670095
0.05010793105868432
-0.00677510903832138
0.0017714703844369597
0.03136735190672745
-0.03153476309620575
-0.05276201575598064
-0.006522328269664992
-0.0675802338923067
-0.021519958759114804
-0.050067832227561795
-0.015594181944565492
-0.044845030159118275
-0.01705197699894597
0.05137551315287231
-0.037123609993930655
0.019213046631381285
-0.09043364734076292
-0.016490977647567483
-0.04124803244355235
0.002890448339418585
-0.0276251103898406
0.04322131208526129
-0.01770391547963538
0.05624741205374942
-0.10460624256203616
0.0020107690859023997
0.006716057762733981
-0.04674027598692609
5.48955529751527e-05
0.02410800307365163
0.05434489861548269
-0.014271815607504007
-0.021967719636732892
-0.030069314389932864
0.0024883268317126206
-0.04678835660438843
0.0375243925676495
-0.08114373175336387
-0.003231666691667938
-0.0689794488911502
-0.0024035805790789725
0.04042029605765139
0.009250088205870824
-0.030135153012260486
0.03583117894129908
-0.1367764103597657
-0.0033628878569389484
-0.041605110596950004
0.02471149705147871
-0.12654495570621002
-0.023273294026192215
-0.03214914550868461
0.045212166437445994
-0.039615383302974844
-0.01109760241297242
0.0035512491448765
-0.0011793477435941035
-0.002187348100967979
0.0030842673780198783
-2.70768694327552e-05
0.11882617690061892
-0.08963236730384838
-0.03955973006073887
-0.0023537729982956333
0.05564657510261106
0.04768956709721198
0.05187689963659761
-0.0017668605465909649
0.06205267217569475
-0.02996922920877622
0.045793163891773375
0.009459347060375736
0.010346076952217405
-0.06605377168831088
-0.08851502758813865
-0.014532030729218251
-0.004658085513956536
-0.056059517461829
0.046289788336685414
-0.041167692693147635
0.02877523910626888
-0.014711070704066444
0.13908075907525425
0.44011879104620755
0.9197516584845542
0.5269634541670983
0.1426606729333826
0.015738805006434403
-0.044172659218155275
0.03381922528038821
0.02841627199246234
-0.057077606559948535
0.02245182547567643
0.007126976771220327
0.0052365580774853225
-0.06915388919866963
0.041143881976168625
-0.027131640565891464
-0.03239579779936505
0.022757509463965243
-0.010920425521746973
-0.07178733647557581
0.07647335149133823
0.011408816935836556
-0.0010249448433270359
-0.001564727934661919
0.0007675778939986359
0.004829345566806621
0.05703596711397551
0.0790379190876751
-0.014489911183796007
0.03381968706400512
0.03135205408696242
0.034471522084103236
0.06357387560604473
0.042594087423465425
0.020861225681228782
-0.03172775575744368
0.015165032203072576
-0.052297991540185156
0.023058324659042662
0.015964304241940352
-0.07157598103338485
-0.02346064462594971
-0.03707235771045596
0.035142186662858926
-0.014703005772474584
-0.07115567059200763
0.0222928092716698
0.010333053249291431
0.00622521617275916
-0.05512007870344926
0.029387326349381404
-0.005654681627883314
-0.008654175605186075
-0.0628964841172306
-0.061090823661020345
0.20497251664669602
-0.057657441229940876
-0.10535785388012962
-0.019271823706758395
-0.009524205414755902
-0.045844135715134064
-0.0410882562399136
-0.005940907831461132
0.01822249070384571
-0.070000160365313
-0.019782796436545836
-8.748096257596075e-05
-0.011948137600789027
-0.034333373855457254
-0.05125278876226996
0.08648935969741745
-0.11684749467548661
0.05126653091776802
-0.0571252275266802
0.012017460337020135
0.0039105162751164975
-0.051973046232062864
-0.0096126352295604
-0.019856596677145833
0.0013855507809571819
0.06409754399648293
0.0711452391426519
-0.03836603983516507
0.0172878136669128
0.050932645471094495
-0.02165246152437539
0.029980216856462568
0.11900918306344646
-0.057010274425976004
0.02393225164440906
-0.050389994226970075
-0.03125525376990076
-0.023781999375360508
0.022142822215479502
0.10130861524537703
-0.02985260934630271
0.05043610250376812
-0.04508944351853266
-0.021969612081499737
0.0656387899304352
0.047843133828871835
-0.020591230563842752
-0.030279152716169766
0.023428044990862703
-0.03270286392933839
-0.023995514299778992
-0.02007269771508393
-0.008914451311244988
-0.029165761392094272
-0.0817348129614962
0.07760552722274004
0.04104625110498017
-0.004365263344838393
-0.03692760029975439
0.06014982103060654
0.02337975516488661
-0.032435530468489585
0.025374820366378528
0.004036054105370323
0.0067156132819540726
0.043099044094762215
0.025051935707126122
0.04269566052436319
0.09164169470836242
0.029180458073776422
0.11757028830620425
0.059712596232297445
-0.012287324537801248
-0.0756949518613319
0.06021145027486833
-0.06459210569586114
0.007762572718686422
0.036123090199198925
-0.05364200639056737
-0.0314909915226896
-0.05320279466498891
0.10323251425944274
0.036721616588480006
-0.03618020913289
-0.07700891869071287
-0.04358484652236569
-0.03141093654786682
-0.027746613775974455
0.03959465053850236
-0.07054128521304102
0.0543663159459848
-0.09032580886344452
-0.003749555067643678
-0.03480723964242643
0.049730106798316846
0.07202215425135815
0.04043897211584005
0.022129756078361013
-0.013431312168162464
0.06706373921532614
-0.05003152879966462
0.12235692185858656
0.5542305059199276
1.0458070418433767
0.5264387127404169
0.12507880049927653
0.04461042850445872
-0.006643410237101662
0.07133496584280084
0.10284921387104709
-0.09242606184897585
-0.01969688534116782
-0.05578644212908138
-0.03262666779063821
0.0061923721648575805
0.023550732702834212
-0.008257451050042481
0.03178364778506431
-0.036832010717438676
-0.020239036842360895
0.03229707697826194
-0.016535429630788103
-0.06445189114417
0.11158747398842013
0.046910816990954736
0.008153117157584473
0.0446157538353158
0.020866422052787763
-0.0794089211251621
0.00766067669367337
-0.03616930938445525
0.005645169355920535
0.02021831764024239
0.04760553863995038
-0.04929021071588206
-0.04745704923966271
-0.02370895471907982
0.07320937563748034
-0.01817316611140497
0.02674568402132109
-0.0027927959263937766
-0.019762916848951536
0.006722022279581666
0.039592538749697356
0.03369110804847705
-0.06043979990862536
0.016751626963709753
0.081527332250811
0.015245543301058428
0.05654375281533355
0.08702326195832756
0.008198781599006636
-0.0030980431283838578
0.021490419549849624
0.06436393292984745
-0.007956094320062387
-0.057334305440641255
0.017988788755043412
0.04641351241238292
0.019980001376922595
0.021944341360439854
-0.001927775365979931
-0.011745410153040566
0.06353883522137435
-0.08919202392568883
0.0045834568798758515
-0.04911509721659325
-0.0016367453299921415
0.013197541533492667
0.025293958943106307
0.0070898760905394945
0.06952840735733305
0.005279966209826994
-0.053071793405125106
0.05173879482440472
0.016829708325062788
-0.04798471502955462
0.036544173953786056
-0.02791480149074036
0.0467638621863873
-0.06307746014221528
-0.006252023153787956
0.02150941832215239
-0.05333482167223243
0.026160279262879855
0.051639950333831654
-0.010178968309121489
0.019649255069002655
-0.03976768711862215
0.1430676719948185
0.0003113828772912333
0.01656223896431015
-0.013398610403555581
-0.03302960765024263
0.048220913906965236
-0.12034357700743754
-0.09119659356473059
0.016012246107894035
-0.018385476076230704
0.04226943907573116
-0.025898475026922087
-0.08357571035231381
-0.0033175448590392898
-0.013399197394807811
-0.054123889007078624
0.03931376788626095
0.01784742730893862
-0.049292362978011255
-0.07664608955358605
0.01775714321364735
-0.04781671724380168
-0.04797015359059026
-0.005453063043745753
0.002374920617612768
0.02514709785858736
0.052847893609472375
-0.023186925459581086
0.02938118873101311
-0.00870996732709777
0.05884846395259346
-0.04241111212081766
0.02621177563734636
-0.04135470772312638
-0.04535509417215753
-0.022822190394992364
-0.10510851623136566
0.04932628786017684
-0.043648890595049616
-0.02303808184297732
-0.0483629605482482
0.047493873516308155
0.013354673383053885
0.027542421376842565
0.008490238256755378
0.008416504497219382
0.016609790094434754
0.047461621850301144
-0.05736955821872011
-0.028536353143633966
-0.05256830090522357
0.029996215359348023
0.02206303987871562
0.0359056409309466
-0.12751128759602837
-0.021636007487731562
-0.11901712690343949
0.09756165513816388
0.006350862892289268
-0.04087276046939339
-0.0061132128839560375
-0.0009064842484831264
0.09885127932094022
-0.009617991568358356
0.009279649142787205
-0.02965359895071166
0.10547499431541035
0.07861866874819387
-0.09780615644131307
0.04268348301781223
0.022402239362840744
-0.03879298941938839
-0.049664337708271195
-0.0015008178623328455
0.5321361593666376
0.9320292142087468
0.5154925570225126
0.045578619494202846
-0.05976359217225851
0.0025126902925572377
0.06253081122583153
-0.03837629959495661
-0.002959584146188114
0.005143992348600595
-0.0039381874828625305
0.015490757560925071
0.0008148827772320733
-0.0870686654755032
0.0652327847087281
0.01974446794143513
-0.010660873977585283
-0.04997486624600955
-0.018256275672852876
0.043701827049999274
-0.06654504250205366
-0.04196540228939678
-0.004270983508747307
-0.08036544426953543
-0.0485352575113604
-0.013792340309919144
-0.12256971218174124
-0.01202811640238179
-0.065737949880953
0.05915144643791891
-0.02772276731368847
0.03691925615917765
0.0192938854372109
-0.03944802130789732
0.01759522889103658
0.08501119578941298
0.002481241568050509
-0.017751845279074818
0.019030313947096967
0.02420949520425715
-0.018479042744028767
-0.14521761768680613
-0.04455002885844658
-0.06522008501745946
-0.0011749186003660777
0.05881532907264822
0.024375393869021995
-0.024892904610077805
0.013104222984521892
-0.0009900166425235446
0.026026518735519883
0.028808412748318687
0.06511097293433474
-0.0069642544311515064
-0.08989210067744494
-0.06625372884040509
0.0008716795076353892
-0.013443065482216543
0.036106356201051
0.051872691055604596
0.0018080585103947885
-0.062491519592559455
0.02809770114318168
0.013956962557685174
0.031737095342430695
-0.036243994624775996
0.1490388447691948
-0.087268805135012
0.004673726568910032
0.035730893126881616
0.041336197289122405
0.0004782569050034834
0.031055799241738898
0.045252464474295234
0.005395217365071958
0.011430599553294087
0.03206200761603447
0.0010698919353645303
0.06669408479495707
0.049874449675308095
-0.015316318272103557
-0.03591857010583504
0.03866327799586547
0.00429917328263724
-0.029645686383425036
-0.02398370467900511
0.03241011565815183
-0.023248834740183234
0.07229248920391891
-0.0498898613432368
-0.02505160867955261
-0.04651332733542059
-0.06094913821316
-0.03980796570766202
-0.02542958725281229
-0.020991285562032475
-0.10823886155714312
-0.059674050001793925
0.008994095976057503
-0.03511931789673569
0.05206552640755059
-0.01207949400648929
0.02961971566080574
-0.01860124452400225
0.04577281247884078
-0.11668191553409268
0.00533181220134293
0.07652075259428026
-0.07285706650960966
0.03761379544930962
0.019587841717680177
-0.07137430377126715
0.017405881489080358
0.01704857926464098
-0.004560607670617846
0.057069312336320066
0.05015085614377998
0.04074606688358842
0.07008824961350078
-0.040591444954814856
-0.02615792608454881
-0.03294827969419708
-0.025551306342429365
-0.02459635653862181
-0.006789642106963332
-0.019266705055408215
-0.054381048017271554
0.039688937592000026
-0.0437841533196367
0.07871953595731619
0.04033962295581854
-0.058907899862913664
-0.0009951408498573547
-0.07079091581389134
0.06370911680850093
0.0002526316178512947
-0.0016657239943073836
0.011049503897489668
-0.00862309602625099
-0.032945089056899225
-0.004810958990683841
0.06271480234967584
-0.027828997988202226
0.06969398624276868
-0.023603411382820225
0.008987127796910214
0.09805368287485583
0.02822545314586787
0.01769775642650245
0.03267864318578806
0.04994116803917792
-0.041838938502146227
0.02491587089627059
0.0128986226729804
-0.10832054525599305
0.012392656423210257
0.05049348925589681
0.5056251946232434
1.0492145824336807
0.45329596595800115
0.09406222696214271
-0.021288630685218732
0.05705565901058871
-0.02749268501725117
0.010857877851302496
0.031568713898119
0.0379849472941651
-0.04844437647041697
-0.012718988525713626
0.08007089047069242
-0.0007769638269750201
0.051520256075244734
0.10289922092434929
-0.0033777436774734427
0.04155845649240289
0.04768566212497657
-0.06792560981875825
0.02009413423626437
0.07516411810893575
-0.07889915210518895
-0.005698318922751316
0.005727497125532402
-0.004969858787756786
-0.010045701063088011
-0.055541100408727444
0.019268851082031867
-0.037280094771684584
-0.03602019133494545
-0.09435867580895285
-0.07120949350275252
0.07389802231360229
0.0038811586495605187
0.03697917548063955
-0.044373215788684243
-0.09721566206229304
-0.032842667150795035
-0.09571925011773806
-0.03502276618070439
0.057528600064525065
-0.0049354727201930924
0.07244975668847362
0.028510155491821284
0.053316480598010633
-0.012167620925485397
-0.06959221849464693
-0.05078892250984645
0.061268415584447594
0.008932791509150667
-0.0687306612841914
0.03247214162096145
-0.07790926994531289
0.023042844054060374
-0.01293693350860678
0.0344644026317003
-0.01320362883909313
0.03625863935801859
-0.07654708383563821
0.01671143917368009
-0.02219902401497972
0.01867618849501809
-0.015380422588002533
-0.04472166169116747
-0.005245144712138404
0.06188077259133613
-0.030187923856708834
0.009992219214478194
-0.033673604761774674
-0.09822215501735065
0.003753760903210609
0.1945688470639552
-0.06685365786999334
0.0479271809975152
-0.11855724536625256
-0.002761604271712024
-0.06963646030737418
0.02162713990151089
-0.02761368147445625
-0.029419057700408754
-0.0566334268905515
-0.10747163749065365
-0.014711756855057179
-0.0355261032514821
-0.020842757033284812
-0.017106777654386878
-0.04202123092460171
0.005942672793571885
-0.01091201877368903
0.04127589226315088
0.11896455049703253
0.011406480816390717
0.05534585092507445
0.006271815783817242
0.023269294992020517
-0.016299988463421042
-0.005125167380984278
-0.03975792259900643
0.07088363601829333
0.04839754432936843
0.012757179945723576
-0.051263092275190075
-0.008824557085931637
0.04837271442185789
0.12229691901947198
0.0038596669122818728
0.061272121197297004
0.00866936072408758
0.06378915549108438
-0.10452508511385804
-0.043049878430641675
0.01566735637467003
-0.06083833103557415
0.02122274939038542
0.001974005565370857
-0.0802774260436056
-0.08960102440826187
0.016648694381514742
-0.0573538323474041
-0.022861245653126416
0.03154727073732817
-0.004094401996880097
-0.02114931455474206
-0.07584092055436087
0.07499065302975502
0.04026619151421993
-0.03221410730452636
-0.045154907858156755
-0.028094242876387877
-0.04895850761893747
-0.014834130036038996
0.05580998370896744
0.05058087977653587
0.05041356580483108
-0.06487536383103712
-0.05178705275382009
0.04812018864928053
0.022540749051207416
-0.0217295854800182
0.03557598683768063
0.02523924102084958
-0.07663261007531619
-0.11289976399313922
-0.0006495825807941615
-0.10797054987275062
0.05477919046045222
0.025525729666439057
-0.018395709073481797
-0.06162142950990568
-0.04683718314397639
-0.15136509512374832
0.06971601754143061
0.1096974671825197
0.49098696429339883
1.0917543363260203
0.4525925337131037
0.0899113587190333
-0.03476560054944421
0.10403823527001364
-0.01445680197711943
0.009255480841767007
0.08104081537244465
0.05421491169791907
-0.08126260416469855
-0.01574826842153664
-0.00350985336750939
0.00802315893968468
0.015754059879685752
-0.045303974194930825
0.07640181124957258
0.022288154437516996
0.03251925223471571
0.06863869068053256
0.013831910970631703
-0.010449160129015686
-0.018148590157535283
-0.011251556151967487
-0.008074671569493683
-0.09558971951235763
-0.031051003330067287
-0.054664605384649095
-0.10143867403283607
0.007844881792964994
0.022174407957220265
-0.043065653789640744
-0.014007267812501958
0.028284105376703367
-0.01507526681123467
-0.006819086591051799
-0.012235802247011762
0.030084227625506107
-0.0008390185504846084
-0.016267110594555812
-0.02373931907183144
-0.04187607913908479
0.02985464508583422
0.02830544320092653
-0.00030429727525965185
0.04689545573626551
0.0005397762079850485
0.016228310678263067
-0.028480069877347622
0.05995309962847631
0.008104702019975667
0.01933092403476984
0.003337702796499189
0.004213773541683848
0.013051192156123931
-0.10267996173336036
0.021194108461129537
-0.03558400816896687
-0.01157250449611507
-0.03279396347040222
0.041541683288519905
-0.03961144376156543
-0.014728273185027714
-0.03246388948177762
-0.03709533505284084
-0.03652239194106285
-0.06213359619406788
-0.028161930300220572
0.009633944117351296
-0.04556940402808605
0.006284598007950283
0.026491781492996865
-0.0068975320695034426
-0.05952525793738289
-0.08795808907145196
0.040470243175472626
0.07715842736761182
0.07049635033311898
0.01506621963609589
0.015506352813665006
-0.010916651778061379
-0.011786070460406547
-0.03639148207402563
-0.042313961574878454
-0.09360927869330476
0.034996193039411504
0.027536883105394917
-0.01895379059970116
0.06282296770937117
0.11170368403268693
-0.07444189292394927
0.028349755347394714
-0.0010678899800784958
0.08050923289849565
-0.025988552368138552
0.05310310088624696
0.034440190228751846
0.057642648624990016
-0.03622146720452226
-0.019281778532824086
0.026372930055419824
0.05657415530156326
0.011091895555814725
-0.09493173989784191
0.05930554338609554
0.0647905410711747
-0.027458746956853505
0.04254020956857904
0.024604827229887757
-0.0445684920581237
0.04441610197919035
-0.0021536151168880784
-0.067904826239523
0.04492154061225528
0.1057400730464936
-0.11516261550355572
0.015290857516190482
0.013317610793483828
-0.05770782681055592
0.05131736952626306
-0.05459143511739034
0.004222220125638631
-0.03742708362208961
-0.051290470088862616
0.01856224915151074
-0.035585339025605366
0.06402403496435694
0.001092618560134543
0.04301242693224368
0.039915346599624625
0.0594463120768747
-0.014534010484210883
-0.0060882608280196
-0.0443913903704051
0.006981913786435552
-0.039966187106399036
0.05679024337263997
-0.045822779633581806
-0.02177955921881848
0.027247894894492697
0.025231332279801816
-0.05724912934847653
-0.030021169460663702
-0.015399313975078821
-0.008408782336881316
0.009853273836103668
0.03773893810408592
-0.007031298453548343
0.0046765065960633866
-0.039258239009644806
0.0750704810472228
0.020587601985115334
-0.014251854002484144
0.06146130538419812
0.11852305306003848
0.5109973720939958
1.0002392359955885
0.5508000511281963
0.18065575959658017
0.049954322478759784
0.0016229484349332014
0.06697156482457105
-0.013033506668040665
-0.044100961594580955
0.040493122599982403
0.07202541011581974
-1.5041140930973436e-05
0.08241823693350181
-0.0725215297770612
-0.004617830571631071
-0.042662211432909186
-0.043635222038673704
-0.0015830855469026119
0.08613772372485043
0.06587513559243115
0.06976583166425647
0.022233688103539376
-0.014367679350692657
0.0167612505269142
-0.07079605223607867
0.07725296089680168
-0.08919038980906183
-0.0063982356171096615
-2.7460878950938804e-05
0.04234827801701248
0.021967041404002706
0.025278876057435947
-0.11750199255397153
-0.008377607971690817
-0.031682599353299354
0.0074618864818429475
-0.006599140866719655
0.011069845350073902
-0.059632427930204894
0.0050854728196499934
0.0874837351178872
0.10644932674153576
0.06751692597652685
-0.09148503604220505
-0.014483704104669735
-0.024962853427567145
0.007660924470734825
0.06632520616251251
-0.0023058802872569645
-0.04596174377373749
0.058074350417665135
0.018583364731236212
0.038593030657171845
0.050522382135376
-0.016953183424584798
-0.059061023370682635
0.010854328074666424
-0.017184643312417185
0.0036705164839786596
0.0708479695321912
0.009978346753525437
0.09199725579904056
0.014729347438539776
-0.014301271275479244
-0.06302415259981364
0.01120375096728337
-0.04580977674235318
0.02668523826076164
-0.005664085696137618
-0.0072996968823566405
0.004257596296137106
0.011655359240336938
-0.0017101182732108618
0.10683239511946868
-0.038602401598163555
0.051209969762779056
0.06278242863636996
-0.05537106040958063
0.0028225728593619746
0.01781239933946385
0.008567112687222114
0.006610402407811704
0.03126470871136377
-0.10482635821820084
-0.004926007095608707
-0.02101340369534921
-0.03596599574909476
0.043957074662829845
0.05160687353677068
0.056839723042225745
0.042566888835496065
-0.0598559222928185
0.007281854616837057
0.05547736471844844
-0.12594730846477792
0.08128594417359192
-0.06271145043176786
-0.044486824927423126
0.038305800230603954
0.09745767529645477
-0.04670377277925164
-0.0392751644906735
0.06275708293084088
0.008221631579013384
-0.012406752618284896
0.010490171164427835
0.10922495330886316
0.03849575272011767
0.017764664737300782
0.028990574858295676
0.020782637467606432
0.04566675868600901
-0.03191242970372513
-0.0034039732521328153
-0.0009941092799956818
-0.0463241783431523
-0.05491293849508429
0.06982185132605288
0.03543808678860441
0.088437397155905
0.025233868034028453
0.015987406760578613
-0.010186731912414324
0.05041288556624094
-0.06364409178361287
0.015230119514643673
0.04623048545671795
-0.004221187226042943
0.022055425764154243
0.07922144613185685
-0.011490487722454566
0.020988861499244102
0.05116498466808174
-0.015926944586796134
-0.05394615866934546
0.03647951958900293
0.005785009862451848
-0.001327633892040308
0.008494388206613584
-0.05909267477461541
-0.012494403496746628
0.03572681538012497
-0.00013322864183631746
-0.025801880229650426
-0.036969674843761624
0.013591639217411461
0.04206774924129797
0.05129980147753624
-0.027802030450029686
0.08124644132028003
0.0056923912341908965
-0.08198761177241674
0.00594293159597226
-0.050158220852941526
0.020465049033577043
0.013906034452451331
-0.07615570389695452
0.07188770178188958
-0.03225429766536809
0.009070947878510177
0.564038885418922
1.0305300930025718
0.487198926551444
0.10242060569041696
-0.005827736321460095
-0.07931672542119221
-0.06991265621279147
0.0476150308631203
0.020634363885131412
0.045772141835622726
0.06038300242195375
-0.16544806265386525
-0.02038500877161973
-0.05775426558990651
-0.006399222056557106
-0.09263316360021927
0.029869284921715252
0.033016797963175595
0.11368802712552012
-0.005008850216781978
0.03386382162669406
0.0485155754269744
0.08594402199589479
-0.05656713912066084
0.04476205386488123
0.01987692793181259
-0.08085305767914415
0.02337039451072731
0.03707902219098853
-0.08433645503325683
-0.003810481790504747
0.003924956995057526
0.0023881191549278077
0.03124675244263099
-0.02998118098197551
-0.05473451680394369
0.024373906416394614
0.0786004040485308
0.07491744360917262
0.11951345583216942
-0.01852395258838756
-0.008393141018807775
-0.10760745536778245
-0.030780951332672238
-0.07901878052369221
-0.0172625973100445
0.06809420463658948
0.053241535138612045
-0.016478285661026878
-0.02874955925529793
-0.040620252712850684
0.0431344070157641
-0.015682059058862673
0.01319702235925869
0.03346213989463347
0.037087093003279524
-0.13925561305192138
0.02803995989853092
0.004965866876528048
-0.09014741104992147
0.06907875182586054
0.0098898479285888
-0.07741761723661829
-0.02912167215951384
-0.010521775615189863
0.1306408228993107
-0.043701033701279056
-0.03444438038747235
0.008996494702108863
0.10705267673630521
-0.01159684969844781
-0.022336947416855032
0.00899690443717171
-0.016495884635067216
-0.017226249768072018
0.04812020436905696
-0.02485577212496924
-0.017554595912824652
0.050009569855299287
-0.07145246290952884
-0.017346695905851552
-0.08321949878076196
-0.02494239479634177
-0.017535574344712073
-0.016692786346423284
-0.019512921712907683
0.014041588834177924
-0.05589423467395212
0.019504683194175042
-0.025307194125195873
0.037909176685647826
-0.0031166990227005404
-0.0295957337326296
-0.06552050279889524
0.014823596655102437
-0.009611554555098042
0.07313436889194545
0.0769261700331454
-0.02431167403907082
-0.11787294571244529
0.04432673165170578
-0.026606668437408356
-0.017501966420597096
0.05973507729493306
0.017367015394051114
0.042397810787627895
0.053166805741877335
-0.008414959580122623
0.03421181006530429
0.005273453080478684
0.026971348106782013
0.007784666060372616
0.06803800678585954
-0.06406033366491865
-0.02169444251743985
-0.004449321581299701
0.006036752205028586
-0.06413098907621041
-0.037181339537074275
0.00184725320158911
-0.027188823129212975
-0.08575661893132808
-0.018231700273053385
-0.0606728395850213
0.030048005530049424
0.014731418868647273
0.04503640441609851
0.01041960563309345
-0.05368108920488245
-0.1573052677595476
0.05715361510552902
-0.021322307615957308
-0.11161400344585984
0.07837405902536827
0.028861107301491374
0.07765966671611274
0.021372180709275004
0.03323363389770845
-0.02542485854458984
0.03557942054533332
0.09679988244434445
0.04149277202928085
-0.017814012224448467
-0.06551095439846068
0.05723359457310765
0.0029287449792192786
0.005113198940213809
-0.09896888080604144
-0.10258493291656696
0.004271080419783536
-0.04495969193527093
0.01046881363294969
0.0476689012077742
-0.028350971932855254
0.011682130987217855
-0.005847331234267642
0.2476043401928585
0.4736054392133172
0.9651065158337585
0.477250884204094
0.15821994152955918
-0.024772372156713723
0.037012832249744644
0.001762181056594662
0.0031121015993415234
0.08002273100892153
-0.09030249694927117
0.006647529436140855
0.03486531786276577
0.019680941171011074
-0.07330507528834712
-0.05697583567287648
0.013912145734620289
-0.11677061946393169
-0.026478200138115155
-0.06151294306205849
0.009633482807354127
-0.007859599883882086
0.0189516676988336
-0.043359643089515454
0.013271712798736915
0.00018531484872301278
-0.04293836208736523
0.054741214006376084
0.03496218810687184
-0.0318996166826696
-0.03938421176833252
0.04643463402043089
-0.08060033235219877
-0.06463098829058432
0.02400327820066956
0.09075180640708298
-0.03021853856326447
-0.024486440206105905
-0.010981140537357041
-0.023677017488083714
-0.021370903605900927
-0.030653731082695576
0.009374271137170974
0.03468877578020544
0.007907126678926029
-0.008116079160794388
-0.030381166153416933
-0.05879888152560867
-0.06493687216556566
-0.0749114976584273
0.03158713696133773
-0.02911512008122122
0.019851165900030332
-0.035702515724903586
-0.0036613142347303226
-0.01694042175972281
0.07867273046407436
-0.023816318167868968
0.04210935591021181
-0.06984442837589853
0.06769498979728093
0.041466009731258524
-0.02938133661702847
-0.030148392020801967
0.05962113976131844
0.04654034358272297
-0.01180027754642827
-0.042986961487212275
0.053794567502058833
-0.02359236115168079
0.01677729195667212
-0.028492795107785768
-0.010983463429197869
0.09521250185049807
-0.003828845559342939
0.07192518608665298
-0.0761052515590565
-0.0866646329881327
0.02914935433257206
-0.03846226728681725
-0.0011799613479610742
-0.1059762547270483
-0.10160701009893183
0.0007130096770363845
-0.024221342208452304
-0.01675593394832493
0.08341279111832073
0.02381006000860521
0.10724159608761862
0.0037890177076566472
0.07475113101227
0.04917059256898387
-0.025276782552669366
-0.008636505305362705
-0.017736170619284577
0.05371951593444753
0.013803745353698977
-0.045977480594642045
-0.06437312140401384
-0.06265563978612548
-0.04478247951737336
-0.04742170876590285
-0.0603482671858348
0.05608075216463046
-0.07652273387247162
0.02026596622722525
0.11401078001254222
0.004352896170141482
0.0045149591108525474
0.011394541459347237
-0.07383617604056238
0.021666032382111854
0.01676220711140448
-0.002035504522332819
-0.08446323468383475
0.09466884539987357
0.011867982329756192
-0.06113024341385009
-0.050236671749693554
-0.0388676591212944
0.079383414100345
-0.00619179764736662
-0.006173975032693966
-0.026493000950956237
0.051274228810330294
0.05389560470079172
-0.0756613009470482
-0.005026801455621831
-0.010770845232461947
-0.04769524121224516
-0.02909275214330842
-0.014587969237747923
-0.050393430183820566
0.014624853891169534
0.013535977277167006
0.025885581656076018
-0.023394959004915474
-0.10747488669216172
-0.035693831373649336
-0.052593264520015615
-0.008475261236961103
0.0286298466436579
0.09449759825114903
-0.04529534158995612
0.006388420019374408
0.008734659214036499
0.07201148471161636
0.01099737741769569
-0.018201965502461375
-0.002125785781088551
0.017394518173711484
0.03694428194674366
0.08508176594680107
0.07998103928397025
0.06185658920277854
0.42479135794986134
0.9375532186353921
0.5120036712982516
0.15634232874035187
-0.012192591060723727
-0.04794273780497599
-0.07329569716010875
0.07928333075941343
-0.024254549363543855
-0.07714594283895859
-0.0013056595267417568
0.00017297273877911348
0.04424094443655083
-0.05966740851534705
0.05815248629407021
0.0658385007721915
0.004617896689089164
0.030312456312863268
0.04061105521751428
-0.030010288589500562
-0.06940460641861847
-0.029449340340090287
-0.08786996942894496
0.023636724545167576
0.07996135583504374
-0.04298658676485463
-0.023093580215986422
-0.01260426114922912
0.10315954913502175
-0.02272659090308951
0.05595444363980356
0.0018069238405010969
-0.15848937040298822
-0.02506644088854656
0.04396575078028972
-0.0247847927006966
0.025611432738269053
0.08664517197868984
0.025890398405696808
-0.03176451505600838
0.035545067804297746
0.024383113693737864
0.04853431779951145
-0.004644015755770065
-0.040442884260308794
0.026891160180973386
0.028459982708998924
-0.026542908088577268
-0.07713894055953896
-0.0228375594023352
-0.05883440116915202
-0.013452054606941233
0.03887937142796859
-0.10022838560441748
0.015515013483990961
0.020590089859875926
-0.046210655033769754
0.01740785718199447
0.058494127706871325
0.021616459140850735
0.10285963032899435
0.004160832129969503
0.05015518016007129
0.10163495308773801
0.025401310889773168
0.0876555257261809
0.022828164610228775
0.07283186902992474
-0.05588506690166625
0.0030706016939581957
0.12352515695002911
-0.09100667074729077
-0.03850127602798006
0.10873918474299159
-0.005365562514957151
-0.005422637338572305
0.045795135145956484
0.06268402791361105
-0.018469135821255315
-0.08203994007681285
-0.046344879393016986
-0.028047536030091105
-0.058754846192520076
-0.04303945088499768
0.0004559378763662879
-0.042434855743251475
0.08828596972067176
-0.02020540865800792
-0.07643338410455218
0.058710651283595275
0.16113123493131834
-0.01650380455985015
0.012828756270532675
0.0651807565543837
-0.01885754563302068
0.09373184278361561
-0.08023412821520015
-0.005919462141513745
-0.040758810183003306
-0.0565629768564535
-0.03946136573286296
0.0256525262254878
0.04604948044502771
0.03543680127323317
-0.07361818072648685
0.027552625237033113
-0.005969426167467559
-0.02908149157253615
-0.010922603570030179
0.08328164013589173
-0.013775833383766107
0.038207130318778086
0.051622695512640086
0.04401846606734437
-0.022864170535538856
-0.020149068030831413
0.013713696517970723
-0.02770660047018313
-0.04257672511935836
0.004960517287241953
-0.04027715307788929
-0.02158444696864936
-0.013710625053615111
-0.02775247274428367
-0.012799568991946123
-0.021546853286574214
0.10216118798170204
0.08843153814898641
-0.02127664360549355
-0.022861183780709886
-0.011208479664441941
0.011945687452839124
-0.005105840053304646
0.0007918838412109739
0.039530834206133375
-0.04338505172165453
-0.029711649107167844
-0.07204731563799745
-0.02004756196682138
0.001841480735424236
0.00223840275309387
0.06265128383651841
-0.04371092535309709
-0.08160073226083119
0.004513227412312167
-0.009196503777480661
0.04272800173287763
0.004077243770733848
0.06399912560699962
-0.006979294273937286
-0.025799778868138223
0.03546593429194209
0.024111430746010677
-0.035686222022926185
0.027221494215548193
0.022055733314999736
-0.002587920923641345
0.15597617943145797
0.5729264630533467
0.9710050637669289
0.5244204873510426
0.10364174786016696
-0.02243806283526984
-0.006094618791944994
-0.08830597324143641
0.05381905157951457
0.039405297048211496
-0.09608771217809126
-0.009291593731961185
0.01681681895536577
0.04274495996613984
-0.01315471178659301
-0.012346778347383916
0.018385388512138817
-0.0340393862164703
0.0831767527269189
0.005166324650982209
0.009698884306632065
0.06738750648928057
-0.0011988188072888345
0.0678866212196124
-0.08022354519959479
0.05769808787310748
0.05166830376512273
-0.1026636233790712
-0.016171487860862
0.020307113220817713
0.040533311702005914
0.0655345607062939
-0.07482663903297045
0.0039959051684096145
-0.04699459918723337
-0.035457198678310035
0.040054390507350726
-0.039806788718289
0.00014312311841501317
-0.022187554285062392
0.0501470168669962
-0.091713440172803
0.06207184369399132
0.07443309588790376
0.029749214207959097
0.0113487256451287
-0.1020401513316803
0.03213612698144278
0.05044479615109193
0.0050714101382552616
-0.032668745658306644
0.07315646256363284
-0.04333262115403481
0.056496028979011015
0.026397716826557012
-0.008673344405625475
0.12195230101426274
0.02412978723366636
0.029167276930613013
0.02554910148071269
0.015130356913911952
-0.004831351557317023
0.03785983687459296
0.00494384273706605
-0.09110286418646282
-0.041240083181892276
0.0575730001856474
0.044205338636245484
-0.051904280399940744
-0.027157275272478062
-0.03071933333220458
0.0728067645776597
-0.07704597512592166
-0.030679084445005778
0.003969471379539723
-0.07219638681906716
0.00410855045675064
-0.0522043616172512
-0.04189329846006809
-0.025976073126018226
-0.009052626361640066
-0.028210673977773007
0.004771955522138384
0.06228002981864337
0.0433320917142457
0.07567739210557106
-0.003749725576340391
-0.003557162774121991
0.010394572892201161
-0.07665896173666066
0.05171255168055228
-0.01874075953486729
-0.0022142188037871918
0.021361308747109384
-0.03862408195627676
-0.03703595133086188
0.019512458038700234
0.021824589190874787
0.11439092665263172
0.012178296331810175
0.026732088137494354
0.11626448814223166
0.017296013560722776
0.021659730186442766
-0.14566432943366123
-0.019329251173227976
0.010192632886589822
-0.038075858575242656
0.010664612298335145
0.035933870296458365
0.04618026247139977
-0.0054521131614878385
-0.0778752659172221
0.004316932953537293
-0.021009191086612384
-0.03837105041808801
-0.014112580171716274
-0.017340510446830385
-0.01090494642466705
-0.022860985913512873
0.07189909835908637
0.013309420698736883
0.013515298220908563
0.02078185361277755
-0.06871677662673638
0.05072246071058398
0.162579833769891
-0.04812086485263279
-0.0337329379699144
-0.02744615313363722
0.014948165557831303
-0.00678891670762742
-0.025746993852166312
0.029295502397860013
0.01939017470065364
0.061133823220898525
0.007216470830370656
-0.0020401866775397706
-0.021700273801754513
0.011759688380299777
-0.052119992745383426
0.05438176649283325
0.031291837639820845
0.011181360726035955
-0.020136862110199247
0.08192371935893894
-0.02740635518394188
-0.04251100214857457
-0.015457745415678407
0.04134588389969668
0.07165076622377645
0.053019437387983086
-0.06547474448175405
-0.0029281399298606288
-0.024060461541719553
0.0198641965226962
-0.0145997626171125
0.13875826612854208
0.47723038766882775
0.9577934278760027
0.565394073351089
0.09841500992397038
0.04423018269677653
-0.05758972058604375
-0.04765444179502666
-0.06338390978254814
-0.03870122406112397
-0.03385409331712265
-0.038210027358493937
-0.0019612843840047358
-0.049982179863701244
-0.03786692361205574
0.010864692997471306
0.09805134900682275
0.023838553714712114
0.019176997692222673
-0.013377449704370676
-0.09904348206060662
-0.009982115083369412
-0.05112194856830965
0.051148752363625996
0.07859528414387246
-0.04548100457982315
-0.0010563883499771724
-0.06802251929100908
0.04141212882408434
0.062420913421248336
0.028481867261114437
0.01598315269363306
-0.0021969233512067754
0.02472072841544662
-0.013682320790285394
-0.01863128827547523
0.0627216478806739
0.03909457567806898
-0.028518551372595853
0.09024964381123605
-0.03480258143992281
0.09667615864339073
-0.0649850477290993
-0.00725472672249722
0.02275842869397006
0.017394216297230317
0.009159824022280487
0.06365123213616113
0.02212429966207015
0.025745467155318193
-0.030313078502817337
0.040979695490228736
-0.022090066869515826
0.056992637135953365
0.07210120338723558
0.003938867216839624
0.026189981647940237
0.01420578991521626
-0.0035217347913777657
-0.011007158282800952
-0.056654274836879175
-0.033063028579086835
0.004830182574574741
0.07163271860672558
0.017148268058467628
0.05690005816834676
-0.08713369719354061
0.06814865670655695
0.03285313712936933
0.051965033872885175
-0.0971527386693134
-0.019710676193636367
-0.052427760499870496
0.03551887906682531
0.025489694640272554
0.04672792878521709
-0.018951143801009956
0.04102496430655794
0.00015411185633619018
0.058660372145593546
0.03444188288710537
-0.03628739488264809
0.014437149613426804
-0.06922178390845724
0.05969342221975631
0.03324999384992885
0.03520916427075669
0.04593294165988784
0.011056338125358575
-0.07295116319143619
0.04824706699226043
-0.03680040759628019
-0.040984641090143645
0.037610147190794085
-0.026168618329378352
0.008376307646555862
0.03633638576034309
0.034825149841626844
0.05505887222178163
-0.027504233821412552
-0.015192099335538549
0.017562281121716476
-0.06427430539788949
-0.04011234223477386
-0.04436626166814586
-0.10498470481126587
-0.026931493836317738
0.0005774905583357411
0.008033552341975468
-0.023020600130797528
-0.04296164584539278
-0.005995977626610482
-0.025422781169358945
-0.11803058771866809
-0.04324597499540744
0.015363343203064747
-0.00048810986490995656
0.009548289435012569
0.030770899809772663
0.013627733948345933
0.004380560564659532
-0.02023378831581285
-0.03418272518349874
0.0031167881130570157
-0.0511915296679508
0.035389548636951575
-0.047625003972538126
0.06999019896766266
-0.0027563401575734577
0.05702231892472435
-0.053680072339888564
0.08228848821676212
-0.0542130412266342
-0.002693018119734207
-0.06518501874315011
0.001055457795430846
-0.007013709760309884
-0.11437109747785537
0.007244019334787944
0.026014776029373677
-0.04291902888178482
-0.014210899155325057
-0.011084342502000098
0.08265949609003392
0.009928995089460152
-0.027332562397109933
-0.054845329729346
-0.08553875078050632
-0.006251262068294079
0.0058403974965631385
-0.06050239921073473
-0.07083966835273633
0.0236020298767197
0.04890161732506777
-0.014460507417200988
0.025400916081268262
-0.0051480348722348695
0.22997100489536282
0.49585275706428894
1.0687912953283845
0.528282196474857
0.07289013208725209
0.02947972756723315
-0.0028808688379244564
-0.050966830955073206
0.004584078741762145
-0.021492066555746436
-0.0024742017597400934
-0.0035124945777127055
-0.011097315920803279
-0.04769017533744405
0.06103736745813483
-0.0036264495543636976
0.011064430700364074
-0.009910112576855205
-0.02028339051568739
0.009937262144973709
0.07031227371002241
-0.07792672095723646
-0.05453610222500768
-0.016434634453041854
-0.039385580972304934
0.10077437576545414
-0.017397973481204674
0.023736086224368534
-0.014211446453070278
-0.12682392744985582
-0.02032669241982154
-0.05852645288516484
0.016543839297276517
-0.014936110637221008
-0.038290747435610374
-0.0056939177416981636
-0.021398872058521153
0.05105290668944386
0.028049327885420722
0.08660959254374467
0.03610662618586247
0.024473816490794595
0.029850087291452183
0.03670503122601363
-0.0899935753315713
0.025912059825950753
-0.07982231263849515
-0.09559431002560874
-0.05561164999774966
0.01268786865800575
-0.06501540294211998
0.02541976433759757
0.08177865295478734
-0.01539490061915474
0.010153045911293398
-0.035123995813885554
-0.061264247971118374
-0.009729383982805996
-0.03897042447532958
-0.023078153039369054
-0.03653096823236548
-0.066994231200649
-0.005890897609650785
-0.09635280020132864
0.025264915743331298
-0.08450053939251932
-0.02966785267334105
0.05840365321816349
0.03575705293683918
-7.711798755267282e-05
0.10958631069651954
0.004683449407464153
0.05289198155013933
-0.03131433489082932
-0.14432497780012446
0.011364432341745244
0.022189443489894475
0.020612307832109614
-0.07209138562815597
0.1489103775260839
-0.05524410953779327
0.005103141361224772
0.012533835435532329
0.04096223186137147
-0.03447515940264491
0.02614718250434897
0.08092185400774728
-0.022919924817080523
-0.02529301310973254
-0.05049194735721471
0.01216199033123449
-0.044379521884827744
0.034578613436417396
-0.024161769235328444
-0.011970087326263014
-0.049787957505857766
0.10753336741426722
0.005094074210969415
-0.05765210815057767
0.013857508554624282
-0.08473086342487564
-0.032919293966796985
0.0212772700038732
0.026010388782372048
0.044756370199339514
0.06515569744262846
-0.008811194563506338
0.0446671538008976
0.04016305553686618
0.04217891797399104
-0.07414627116907575
0.012973133183739233
-0.014510901680714393
0.06518327413951239
0.005365425473301477
-0.019893845327470107
-0.015544618970067313
-0.01841569968271035
0.007880372770004581
0.016100061224466288
-0.010084913918462793
-0.016182213619104796
-0.04775468247930563
0.07212203937187654
-0.013768052285302562
0.011987379410346326
0.02081105124557464
0.013674680055039268
-0.023016211459202848
0.029731110967158123
0.07154580619629786
0.03373201662891067
0.021694241396618366
0.0324183722087158
0.0032961963835347534
-0.013806691330870719
0.09571659093879764
0.0766617914996334
-0.0240501990766346
0.05673566304194109
0.023318356295174977
0.006493840887639192
0.0753916051186637
0.005838345625565289
0.012739625539031813
0.024447323191674558
-0.061725426163324194
0.013660766711635994
-0.06921853976865248
0.029276858427045194
0.027162319373012653
0.05877209494997585
0.03128877224311683
0.1288269836650847
-0.07060977759813503
-0.0009562389684644331
0.1524608530160771
0.5571259488342117
0.9713264972537926
0.5593117234100311
0.026814610587871074
-0.0402605563964283
0.02057338791613158
0.014009634656236808
0.06272318019023347
0.044604459380857234
-0.021886114027907348
0.0629216767497208
0.027539777197224093
0.041387422509922514
0.040090482694305526
-0.012133809633359586
0.04945271586494533
0.017161991055525846
0.04535177087744549
0.07448371914243139
-0.004824634367207842
0.05203272359040365
-0.017121087411176378
-0.023206980822293787
-0.0003859399732400285
-0.0005088950839956484
0.023203731076881964
-0.05638516914850358
0.02815144284324756
-0.0073344603172650034
-0.09458622980722695
0.020015027677770195
0.07071141954330566
0.053240583151289156
-4.7322279139832145e-05
-0.02139644462446691
0.043542758783463975
-0.021367309289666413
-0.0021782907425074204
0.12853316606104612
0.07435434861899697
-0.008999947694001819
0.034255475405293535
0.07970955461695876
0.023393681947309935
-0.054531761147506734
0.01721100321366095
-0.011361664938115006
-0.010310014704827201
-0.033449313279774566
-0.054999475362941565
-0.02830590621013332
0.03818547200629033
0.04965117957918868
0.10672343439954268
-0.02388168261959285
-0.0388454214784176
0.04460521225993311
-0.0735117881890716
-0.09919286824478173
0.04260878550172393
-0.04566782813752745
-0.03381227408021719
0.03231409284158098
0.004135078917378877
-0.012960662415347969
-0.0645351649046124
-0.02658478201019629
-0.024272103039224335
-0.019942292772793146
0.030724885015739417
0.016725009371383003
-0.010286121830735281
0.0069130762558696785
0.08988200936809077
0.018739205772867373
0.07307826258406888
-0.02793181068730269
-0.00958475773282873
-0.015880421775806286
0.019839274408864516
0.02444027570844065
0.027681004061873033
-0.11677571875346482
-0.044256371469979634
0.013125960317228562
0.09344112100951846
-0.025173780918824717
0.11153053312530575
-0.0666089166198831
0.012247091082868668
-0.008008986667455998
-0.02471485646390978
0.04508029740006784
-0.0037902493635133152
-0.0752780264912918
-0.09803785323971353
-0.053058754018748044
0.03163676629649031
-0.010078027521788714
0.05176126244450359
-0.007387306037921881
0.013913054319975887
0.07550443374044946
-0.00933964670788524
0.09795199020493645
0.03397391677257302
-0.04714202462801184
-0.06026799345177134
-0.07200411811432883
0.0018425728044789065
-0.08149283625723835
0.08846024498863242
0.11194934126178768
-0.08009892704208033
0.012559123204263051
-0.09810201531652026
0.035538047969787157
0.04717298999143435
-0.0001330796663678216
0.014954079747178502
-0.03297840023504267
0.002189820408549035
0.03569260801735365
-0.009353650117289992
0.061244059050392465
-0.03441201392536882
-0.015933491744017644
-0.10321900010016792
0.11609163409878026
-0.0995406048255309
0.05566851214131982
0.021339936284683433
-0.00028104814466212163
-0.044499487851939884
-0.02309798854927137
-0.01957495267980458
-0.02618903840298803
-0.10626965105104587
0.029149918565049768
0.03270158355054403
-0.01739709963239028
-0.002213895948429859
0.028860505282439206
-0.06907635023512902
-0.0809014682266947
0.0004652756456141381
-0.016409322769830648
-0.021286850017002517
0.030214989872967574
-0.019764469034026733
0.02208587552727137
0.08873687925201983
0.10498839714820794
0.043254702181827
-0.11907858460250215
0.031568505164860504
0.07774748923475229
0.01334613136946048
-0.03329749252809204
-0.020501105740567554
0.1614796188225414
0.4734037541972481
0.9523946213311756
0.46734599249983994
0.10288812927583603
-0.011123019049353823
-0.0805420342870357
-0.021426697498246938
0.09484879713459886
0.009339150693669524
0.030590088678277734
-0.07102113271116654
0.03324898911669715
0.07526671715075284
0.015901129343019533
-0.06030878860184689
0.032024727463078474
0.04058087110104896
-0.035021814335196765
0.053440862936765005
0.02255950636756117
-0.09963720260915804
-0.029398853298272565
-0.016815040340644072
-0.0028524470911882737
-0.00022265238076694623
0.039467885772241494
0.04121793315777852
0.08077896845042819
0.01693614571600438
0.07381927310031311
0.046555271101710316
0.061340944743889514
0.07980488514921522
-0.016888089223960984
-0.0040356592092682655
-0.10499821798662762
0.055251472767508136
0.051249186101931646
0.007232225605469274
0.03982316341826603
0.05344169942170427
0.0009607755713562753
0.021503969290948822
-0.0007116970256505838
-0.004950851523698498
-0.03396276201055516
-0.07016813266961673
-0.06419812661334204
-0.003577662309441974
-0.05604819884589623
-0.04722414029767154
-0.04094712264702745
-0.014075500428243393
0.05652960297013309
-0.1067750311118229
0.0023819419790592515
-0.0462222261817572
-0.0023030760634564834
-0.0310829193029834
-0.009258482835408107
-0.07719636146860098
0.020531134899286346
0.003113196456037691
0.007729828436721886
0.04835460040709582
-0.07048222486921982
-0.05454145958465234
0.08303665794542914
0.027243879181113814
-0.09622996424691922
-0.009019867844858781
0.053331051847909844
0.1041598405575005
0.07789826435948671
-0.02278134984390618
-0.006286546588488651
-0.09081771798641879
0.005161196619314725
0.01019922029983932
0.045370709465092605
-0.11007025272700842
-0.04619657286961497
-0.011269557554430865
0.04380059225968518
-0.020058221803398408
0.11785555632236
-0.05402522931084498
-0.02461737904803205
-0.05454558099188496
-0.010267879941960125
0.02372499802743385
0.00908654724574906
-0.043163224066048445
0.0610954816992165
0.0690581141418594
-0.03498975116594885
0.15435419610578124
-0.05525185290424657
0.001963501679884384
0.002000122423699469
-0.05621459880377097
0.009973565106008967
-0.006037187977705831
0.02100465510101034
-4.614650171252218e-05
0.040000626857029264
0.030146534708098895
-0.04953010704579888
-0.015038686620855897
-0.04083614837076813
0.08335916941119051
0.047765314416817056
0.016506740646751658
0.026745751470839643
-0.005728665620296241
0.0076763893420625845
-0.03738887484663898
-0.03316348266070359
0.030849507085018147
-0.05384945472270833
-0.03516406011018696
-0.011339783358707004
-0.07548454752212566
0.0500454098682949
0.032909556382662464
0.021425269749246054
-0.019470920238970128
0.05869832358887126
0.020446630925718034
0.0493845565574046
0.05229630510748428
-0.02386409374602348
-0.04427595086226005
-0.05023025709263215
0.0030135824399822927
-0.13617338132589546
-0.05356040679056326
-0.034736121544195926
-0.031010641295866836
0.029826159675684766
-0.07168766994822909
-0.0847189270751221
-0.08374091024854213
0.02626534373066916
-0.02908967647679141
-0.03085987611747214
0.08718630346932227
0.021882531629390963
-0.036467145195021054
-0.06936150986326482
0.09407543275734814
0.011919935610888185
-0.021765249330753383
0.009828248124222913
-0.020841816333276857
0.02543088639835882
-0.08476236453066763
0.07991177850790268
0.4471672110491333
0.9960526042487443
0.4522021848936726
0.0700518686867572
-0.027514406567505208
0.01290814905730555
-0.019104315835117867
-0.05074444007035869
0.020635208179846626
0.10428380743572692
-0.01787099664039367
0.06512510046585196
-0.07730830281666298
-0.03814480153528962
0.0647543316771867
0.010933406228385277
-0.03588511521376525
0.04177830641919984
-0.0517835805747259
0.0032595934087735244
0.04682163444993121
0.01823166967750426
0.12547311104945522
-0.02824577445206133
0.03471508256967285
0.04398755738539241
-0.010963295250011036
-0.04669719053576171
0.058047913814055344
-0.025270029996261503
0.032183792952329274
0.021382861470068834
0.006285671549583746
0.06739047174154933
0.01681256354889757
0.0313918336438622
0.02020830672751292
0.0038099834550416067
-0.019050673198379803
-0.0009733895808362049
0.030883560452485827
0.023542430215919268
0.02985817535997536
0.18881219256393397
-0.025051911017446138
-0.0792393707852816
-0.020454584576461512
-0.01780115251828016
0.021986347240888396
-0.012615567338349346
0.036596892558664905
-0.03836835013680608
0.028883189647441344
-0.07268571010574294
-0.00026311068502093743
-0.040554563098032244
-0.018033858136070047
-0.10256290588131751
0.042808013169085904
-0.019081242215849937
-0.005562602588094414
0.02084278879890323
-0.03654450627931809
-0.024642255606350034
-0.08834147663849679
-0.016190054627057728
0.07709785608266974
0.013651219361785287
-0.07517969299685907
0.021182620196906966
0.06403263568106919
-0.05054776102885122
-0.010777038940617057
-0.009220489977266797
0.006076703557313426
0.005695917612632408
0.03158919618680815
-0.006332850547946406
0.06167311033419379
-0.09613290597310722
-0.0574733838081563
0.07433421542043192
-0.023863603684767042
0.027817448469950906
