ecg
-0.023971526176019387
0.004716001634926403
0.04574454893462938
-0.010496629061490341
-0.024408132078127566
0.009701767874166756
0.014735395812635244
0.010434967917615631
-0.005342268704876586
-0.043053562555353087
-0.03677777380500348
0.011958776659115815
0.02200133462411842
-0.021933233807203467
0.016026505783952576
0.050886660701527656
0.044677433060137495
-0.031854140537699464
-0.06052224449027363
-0.023312019415611562
0.10251209331381426
-0.06053456751493851
0.025690317139635956
-0.05343024450558834
-0.049906208984805675
-0.007259511753207249
-0.023965613938591146
0.031940899046382386
-0.03625531635015591
-0.058749862565170556
0.003292448157067633
0.026302490404899844
-0.006743482383721213
-0.11256158124690663
-0.018613028899169277
0.03238807473152469
0.02223409804069044
0.0015087923982639608
-0.007285851135343403
-0.006289261830371844
-0.004827344134634339
-0.03725915680221455
0.08622260278033272
0.013203928565474596
-0.016436196173780334
-0.013627004973349247
0.03825981784056995
-0.014340325429766064
-0.017480594935738916
-0.015974245288778378
0.011306633909897758
-0.009344300351792463
-0.0297926452011541
-0.03184871642562805
0.060834864218305675
0.018543300907295984
-0.027040840326917143
0.029239861358413194
-0.0633484932632175
-0.057186591307027995
-0.05402236324600072
0.008631131212611203
-0.08259465687870775
-0.17369527090940723
-0.00099410482688635
-0.07638329316039254
-0.03707802063034569
0.02631323477640007
0.004260125032116751
0.010644602569549723
-0.014474464697256263
0.06356205514487424
-0.04531301829746892
0.02597914581881186
0.03048196466177689
-0.11456900450012804
0.09564265068924956
-0.10513496304440229
0.04291913254595508
-0.01852371365968618
0.0413733308162357
0.06932638098830451
0.012578916688404577
-0.1250551225438149
-0.04200504151003079
-0.022244526432791345
-0.03042612471143845
-0.02428921339216197
-0.008212104944343226
-0.09663146518711893
-0.029717216078655895
-0.024792087601712975
-0.012894165821299717
-0.0466122719910121
-0.03720103561497176
0.006663997516306391
0.02648942019551887
0.03732799161315284
0.0125288214305537
-0.06457856142055589
-0.046751703543776404
-0.005972397641922038
-0.033585241234714375
-0.02235487006325817
-0.024571066486721055
-0.042526171216575516
0.038897909948350004
0.02529785391174772
0.02523876018413947
0.039448937232723795
-0.0195321538129253
-0.04927153330668593
0.024575262329597992
0.01762991041790362
0.0542208811219918
0.050741196833490765
0.020212460217016014
-0.004110858413218326
-0.02341866384506545
0.06806061654290883
-0.0495668457317559
-0.12063648933423815
0.015974262262696316
-0.092186959315179
0.0033053664378848227
0.006647205094591501
-0.02685752120069748
0.053320769952952055
0.044375637035934515
-0.01890505232368285
0.05485710960153667
0.040925292874582284
-0.06634801757219481
0.07240075228421032
0.053190707687541555
-0.03070396888470719
0.05177548189544459
-0.08655920733413702
0.05546345781935045
0.034603444052387744
0.01818839273984871
-0.05561661045664186
-0.07075410826345276
-0.002004426355872896
0.02931820833826896
-0.035789757271379646
-0.000405000420488313
0.029511608067514156
0.006012121699875916
-0.020161795758826248
0.057780787659968746
-0.025851150699262554
-0.03469897655238057
0.016641109257034
0.05892940601381813
0.03810645575343078
-0.022330078344977966
0.009074049640070176
-0.015927234222245176
-0.17210585621454808
0.0037492221885671155
-0.009849393621262106
-0.021247336195227937
-0.010411030143193462
0.039815602191571285
0.008621535309848829
0.061637105598192826
-0.04795268586163059
0.07044513873466957
-0.024691328446985725
-0.011251766988583841
0.0866885516231079
-0.02596318174924291
0.027331110878341253
0.08730444663162251
-0.01972613120412431
-0.025784093494375906
0.004788009636302315
-0.04948769410696568
-0.015071029789121497
0.0742959623964207
0.07637816248334686
-0.028749578900200745
-0.06004512864053916
-0.007278413812768238
-0.03627273774008082
0.04245540076789541
0.011891800315444907
0.057633302746806614
0.013590527224650505
0.04123106391386616
-0.022875410569475847
-0.056608444352155785
-0.010247680268693398
0.08172031633625129
-0.14370418474334012
0.010366224734323646
0.04478443558265096
-0.04608987885858328
-0.08857523938738004
0.024455362386910307
-0.04787779680183627
-0.01333764789667549
-0.016752717931156024
0.05214968175905396
-0.054053569236598056
-0.06061918305038575
0.12203057926442676
0.0070001513018441335
0.04249614018557137
-0.006314910155882283
0.14164934852785174
0.45672518196341105
0.975190341775113
0.4414792639614341
0.10714270651885574
-0.04564334984476711
0.09363192847921915
0.05721090475197831
0.028858365644811968
-0.027715320309072353
0.03720456591810753
0.0179947190114406
0.030872456953357837
0.03709694682072134
-0.02577976320476913
-0.01342477453683965
-0.06392692880317523
-0.0986103076693931
-0.02362004281650314
0.021772447974849993
0.04877127938056591
0.034412490456755415
0.025396032178606434
-0.03522802659721596
-0.019555273818952317
-0.010915023718352729
-0.006496639850319028
-0.003571801973679081
-0.07125342146093892
0.020116856249284613
-0.0012942681639928528
0.05572217958797139
0.029847576161975788
0.08509630050944977
0.016861056933123227
0.007459648357078157
-0.011397852718015862
-0.14929374976432436
-0.06552373563829575
0.010450806372174742
-0.0028321391834886323
0.051466590558947145
0.028543750577475054
-0.012823661510668414
0.05413559596621259
0.013041651109865833
-0.01973950381487731
0.052167919097313775
0.05440951831367283
0.03494090156465874
-0.041213841815281656
0.0976827010081481
0.15042597941265876
0.019162611720737775
0.148166301528275
-0.015295128460342379
-0.06886450288230869
0.003901670420848861
0.07342078276511499
-0.04969888747173985
-0.06531361964914352
-0.028024723543104636
0.002362166446522102
0.004220962617648884
-0.036780224992843884
0.024986420445460896
0.02757859108190915
0.05163506936477596
0.03559600609308498
-0.0016390775328856723
-0.07074927536291617
-0.012864888408160198
-0.03360308032671397
-0.058172462012089345
-0.008509707373763343
0.015680343996587374
-0.034819571958337216
-0.02388088785753334
0.035240492008327816
-0.0366289640716254
-0.00032077002755997764
0.003941498010956736
0.10382804427384718
-0.04264379234867615
-0.02147215041423507
0.048613000402773734
-0.023647797882403454
-0.01668856361076119
0.006334257377121157
-0.030916205538289193
0.030112250374662315
0.07171252584056056
0.11958924839806649
0.036541418071182816
0.024693201861844663
-0.011628028658503096
-0.06442225006601214
0.07464125958119132
-0.03791076730569687
0.0620175898548497
0.0557034007259453
-0.002810023471869325
0.03087542112487869
0.011834547546097125
0.02061878802189491
-0.03823566736279643
0.06877903584964822
-0.026655538180906543
-0.0447775637834901
0.0208135634085261
-0.01881584787007725
-0.02077872921535441
0.013368881224686269
0.030911109923256377
-0.01850002533367474
0.03829084862819819
0.014242975426442525
-0.04499204484468278
-0.002680056033231916
0.006040123397211464
-0.006176351950058157
0.08823126573741552
0.028420064053462552
-0.04598861915795928
-0.006008434133356038
0.05104868836047277
0.15120383179414554
0.07107872997639106
-0.04956649002870274
0.022556613779232706
-0.0851774687386383
-0.021845613253236154
0.034913031432085705
0.03522401748915104
-0.009951751535295
0.04543773960493705
-0.0398537502980411
0.0272401262284441
-0.00731836617493267
0.017576745444042148
0.03239176718698715
-0.01407208068112788
-0.07519405971117916
-0.0025419472391230557
0.05241111642653026
0.01762990190526265
-0.026237940504534027
0.08091006979795874
0.026969568654043593
0.054081068295012164
-0.07627807695497413
0.0005053086189644143
-0.012367322154263529
0.04989790974254196
0.05070706326963253
0.03466260528910197
-0.03584602866018973
-0.04171433837926304
-0.040137011669970225
-0.002653471674815303
-0.02316089391926678
-0.06268947230677667
-0.029210437340346423
-0.00904738864608253
-0.09215640904643922
-0.0029869726309614177
-0.005865076321310614
0.033572315479022216
-0.027117938633788693
-0.05040359892614097
-0.006288096934090462
0.029186461243507097
-0.03349850360337589
0.0651955181996794
-0.016848831078862567
0.07828775081053674
-0.006363451073720616
-0.023057864055813216
-0.040300599868913003
-0.027109666031342558
-0.011543185379041475
0.06336979530268759
0.12145260832477678
-0.001919139602746417
-0.0342569356259189
-0.0038275269541672937
-0.007808326695064816
-0.0026549187336805447
-0.05203537615998513
-0.05855123258392338
0.005639489397405029
-0.007155986251137905
0.018861433549074345
0.1391043501403499
-0.0504380027609867
0.02478291688081687
-0.0007782668416088911
-0.01633730334006225
-0.04993055739803289
-0.04677464323801952
0.017696729988238652
0.13453407888291938
-0.010458697936579005
-0.031883402635324014
0.032777581025091374
-0.07258504719496825
-0.024768573910255602
0.03889027942887875
0.11083199442222243
0.6068774258392762
1.0043288136356172
0.43971443513454056
0.1351699147596744
-0.049731713403532433
-0.021609604702506485
-0.09505447122718179
-0.043366148239384616
0.03118511519742169
-0.08820280656097865
0.02912211032198095
-0.004285902067545672
0.07561612155214326
0.07737744929820053
0.07094118434159712
0.10275072683574589
-0.07581035646656488
0.07759579976149772
0.016042184160260813
0.04376969482650238
-0.09136574824070567
0.023189974865288496
-0.046968501639566625
0.014465046431380985
-0.06137681938502524
-0.06605408254007271
0.013685904413848518
0.011753890532527895
-0.04013280800257732
0.08597288937746021
-0.08302410066263316
-0.04921888066402781
-0.021294045779044913
-0.01937446330868994
0.013650014209595879
0.0001432762566508399
-0.015003520407671767
0.018216249207014003
0.026288723798459368
-8.22792815357945e-05
0.039887788716806094
-0.016350055101243665
-0.05216612993784939
-0.0571585392776594
-0.026109865068745353
-0.003427793200119568
0.0707754422948063
0.04297378826139894
0.02489169492959588
-0.0033103141024770945
0.04638841375611785
0.012602832681668794
-0.007496913702154559
-0.013210161579621932
0.02930383699091521
0.0001514696257743636
-0.03490748215840616
-0.06716242709999352
0.06024169926757866
0.03666854333045903
0.030560943177921157
0.06226918559073894
0.022549478810099974
-0.048987961750893004
-0.021370631825013392
0.0926954362468609
-0.0080781766410193
0.095813459864931
0.05902936742287738
0.1003562234377944
-0.03886101599978445
-0.03643559405302307
0.027266269799559564
0.03766235656894702
0.027556613060220836
-0.05881774933361087
0.03144860125735092
-0.007701884258293854
0.10031153231550048
0.06464810786734719
-0.08959852639274171
0.17940248914929377
0.041255571000101576
-0.014037524266837367
0.0033448373531389064
0.09270353648380666
-0.06031154487466789
-0.030363629004180815
0.03227971160989181
0.027688210613585253
-0.07573949740303942
-0.002821061740528886
-0.01812686347728136
-0.056839128116946185
-0.057960386192318185
-0.056852130228196476
-0.10209325274488612
-0.014307654095327391
-0.014115836829778733
-0.018636420771230677
0.03477099797712873
0.014094290876524806
-0.022306201659902682
0.014285142192078576
-0.043155090143134574
-0.0005306460222634688
-0.031622943592717404
-0.022310293135087072
-0.029172546222854076
0.05177169050190459
0.0008765456899240116
0.0015695175227950948
-0.010670361020345211
-0.09020703581741521
0.05064170610946658
-0.00048123806815625233
-0.07667649277782845
0.013433833940297284
-0.035507233339010125
-0.021734555053363122
0.059544404587055205
-0.018630700206365453
0.03307380565288625
0.04088774365320156
0.02490189862367151
-0.06481477805446166
-0.035308165384242966
-0.012245107659042688
-0.03111045208429783
0.06740962374463534
-0.028260670389892065
-0.031867219203768136
0.02838262619876077
0.0984525676155147
-0.0365241662841825
0.03972155236897572
0.052638758954237634
0.0015927171815649456
-0.007090719350904967
0.010452600154286996
0.06116487416982517
0.05328309022214483
0.028935025272651432
-0.04804782144102439
-0.04753155043470234
0.0672199366601771
-0.10767842325559528
0.04260333616722974
-0.034597168473954026
0.005591612548265706
-0.09548098055338977
0.006491629187264596
-0.03845650901536718
0.1076399390010602
-0.01911260860049012
0.05202822317070989
-0.0982171080154448
0.06871324026481411
-0.002607431857577719
0.034947622349160636
-0.11515409748082335
-0.0329168105409526
0.03917487077814267
-0.0964682701715207
-0.03610251783205334
0.017418216447849865
0.01949926532119406
0.08967637429717387
0.01798882866722897
-0.07565863273878837
0.015569369253014848
0.04765753247453822
0.030237029561878855
0.000646313815748512
0.002786316151913783
0.048348188862076896
-0.03031753232544391
-0.10505323159832976
-0.009476179528722387
0.007335841161901207
0.06014751630056388
0.043035427172228136
-0.0153048698112469
-0.023947813118678152
0.05036184071718062
0.0642918350462088
0.02712458000195484
-0.07382899135110794
-0.03283876996377975
0.03602514914179159
-0.08864409731308696
-0.09404629020028037
-0.08701225854294997
0.04237606713086263
0.0481943128820054
0.04854685203014739
-0.06843742263096252
0.09492186432779737
0.4712329540125442
0.8973695144859729
0.5130939623284214
0.1533560956660378
0.019843478731373376
0.002273604296331608
0.04374313157071577
-0.008397604987709341
-0.06871792309718724
0.022008054327634283
-0.010023314557394275
-0.0294798261903175
0.017825115816293736
-0.1135836845449228
-0.05796629515025813
-0.03594334217385766
0.027103825644570725
-0.020144746193788567
0.05612135245157767
-0.02073469183461412
-0.11148651865665674
0.02398980240367023
0.09908871048400948
-0.04880210698791763
0.08395010838161615
0.07196869010428919
0.06007350125315395
0.011400977866333175
0.12270102451345699
0.025997985820384362
0.0955793205755971
0.07601267746614594
0.09818041438746454
-0.01730897924780074
-0.018957059086458852
0.023008381850174377
0.07007127258162571
-0.08892384052142811
-0.012484936588277637
-0.05280656139045167
0.005117452075022788
0.03000492158420537
-0.041892062687799186
-0.062460576445772735
0.005622977828462092
0.05305542574266991
-0.04277435685378124
-0.024831905240132058
0.06107512044600712
-0.032646633245928224
0.015103886037833246
0.0016612292089442184
-0.010333484372720553
-0.04343678081856475
0.08423516641350981
0.02152776822650031
-0.03404594884885276
0.004130821656722
0.03192719934458626
0.018640351315231906
-0.02484420359661399
-0.018711150794837685
-0.016775790669169482
-0.012550144784574056
0.002609721385095432
0.02425804200241
0.056039514015316455
0.05669845475693333
-0.055942301699375585
-0.03247759542238864
-0.06034179695123788
-0.09105551680207614
0.048878781812741266
0.06318039773169767
0.0656151421059443
-0.0004852486072138677
-0.04848346816195318
-0.060876108161032894
0.09357033079075298
-0.0023228396830016792
-0.02854054597514978
0.03148536494232562
0.06299167814486592
0.026875803801191745
-0.010088916484589604
0.010908687172341178
0.07222369151710549
0.06422525738124414
-0.022630002492491717
0.018022970206859466
-0.024550373464078637
0.07290346420602899
-0.012469334584755784
0.054451023727275366
-0.010162938773017924
0.022513154412172748
-0.00110329027873609
0.05895524604776758
-0.023362809441418247
-0.055180365874807284
0.018775237538101116
-0.05132368796102741
0.002828649108218927
-0.04664069400991107
0.04267127289975989
0.0627328427813771
-0.05075750760768789
0.028950377008188394
0.013155400613642088
-0.028529394133301186
0.010798265240175712
0.043320770984326684
-0.0322883642695998
0.014660612922425967
0.015670942081744337
-0.06444274924948022
0.07061538691562069
-0.07217160664332072
-0.03502011284887384
-0.03150049544681941
0.05673140455436696
-0.015394516873487763
-0.010419827045018284
-0.005301902749913264
-0.11317960522203037
-0.04050225210705338
-0.009526405751972089
-0.06727132131866541
0.04876367406319093
-0.055310225451454476
-0.05823109223939074
0.07592680112685858
0.06488805146622396
0.055952039661437525
-0.07594274485627263
-0.04599351382328116
0.006975933108132425
0.06290111969320557
-0.01901982779178348
-0.07049250393648811
0.05150261155325503
0.06743313911801174
0.05357060405267784
0.059347702197567964
0.09709430707936205
-0.06659541466088874
-0.007909253739515567
-0.08570053556189634
-0.04682799853352099
-0.03780300784112576
0.04450275136515986
-0.038619468528819485
0.010223971937072421
-0.014581247414605267
0.01602575872184134
-0.020746752750954136
-0.011072103058879054
-0.018947092450982188
0.0007120653903622693
0.06573978466824654
-0.020970128965582816
-0.05970851147628237
-0.03006225182572916
0.0195679575431678
0.041238444267742376
0.01236473476510156
-0.015224656858754227
-0.08453712998364227
0.07555772159242742
-0.053419456750691444
0.020462032505997263
0.024485362640529
0.05996445803015678
0.0629054571713707
-0.010703481904241982
0.06260885669868972
0.023356045590557546
-0.018439530767061275
0.05795949078670542
-0.06704690323228084
0.09368290445875453
-0.04135058061862493
0.08422091982161506
-0.2049143347645206
0.04115321371604302
-0.04835015191669335
0.0015313376829200953
-0.0030461793134497726
0.03313152660116646
-0.032388050955511116
0.005521990943871628
0.04313259642586461
0.050033988409021284
0.02780602831438919
0.1288194087010524
-0.07928284736513809
-0.07535310515428754
0.009027091773889995
0.041092706891248776
-0.04008923023995917
0.02620975834388242
-0.046928181968673856
0.02762403721600062
-0.04287492843176847
0.18517640040480346
0.6036985430946301
0.9990714852060364
0.477570178077869
0.06755518779843886
0.07950510280229915
-0.06261916696578343
0.07963578278661886
-0.07173146955152458
0.09406669458836298
0.01781261386788912
-0.030284680028873946
0.07697328573664602
-0.04685783299970106
-0.08600359707773378
-0.11260848372423544
0.043588101374885814
-0.011209114708289843
0.08230378553094302
0.06549840123958321
-0.09054878118394463
0.13289233651444296
0.04566034844974773
-0.11434613879734551
0.046042242280155805
-0.07465494852736149
-0.05274143694535466
0.013804294822312324
-0.017680720883175616
-0.01774253486441694
0.007529211796323163
0.011796786888609355
0.0030810495871089224
-0.04242951604273817
0.020355307231225403
-0.0007050375191804018
-0.07945880621595974
0.00912810377650693
0.006234713004170118
-0.026514022770621544
-0.06493427290337661
-0.0025454263134321764
-0.07212927547404917
-0.08394405403877382
0.06629427665222862
0.00468360683500673
0.14923767822452602
-0.019221900659055047
0.03264390389902531
-0.040784071473446
0.13339959711014424
-0.0279067188945646
-0.04240380821513137
-0.026037891782078465
0.025281894660106982
0.012171595727832794
0.03038988962890958
-0.004102624606183187
-0.07332993358273643
-0.0069418571971965465
-0.009809565050339662
0.050045590987497994
0.0014393083285055782
0.03765833807849198
-0.06975339036896742
0.006512271861420982
0.0508603803571053
-0.01704149356187741
0.04642798659286568
0.004973364687120329
-0.0231411674551981
-0.01721107186706147
0.0716755679851909
0.007001027325137076
0.03212812299606493
-0.003947011736579412
0.08005078416150119
-0.12571412124720263
0.1382889390346924
-7.882943958014906e-05
-0.04037830987821763
0.017936347951712447
0.05628851523541151
-0.02067344942427865
0.00014663078505900253
-0.017035366727747848
-0.08934303688740905
-0.057796904661345364
-0.11470075305998773
0.05161308949470618
-0.04390632450355346
0.012922347497543191
0.0387836606473371
-0.045834251590746306
0.01889947388459513
-0.026511965899871343
0.011530011545230593
0.03208239882935303
0.07741232954400076
-0.08118394172449503
-0.01850297325979837
-0.00012261555777587867
-0.03341403549364652
0.04467668590347886
0.007930952711619742
-0.013633038029896169
0.04485738956133573
-0.04501326249277799
0.08585366738083554
0.003839446397294676
0.017378011061664873
-0.0017994077575204663
-0.04648802924748182
-0.08824191780965826
0.016061955012901752
-0.06887596199901379
0.08673343708204322
0.061733830564018544
0.050198548221792996
0.025075764499669563
-0.07751705757416505
-0.06606142199693299
0.004166778697791995
-0.03879780212508663
0.04122619028269866
-0.08636368363108513
-0.033822091788700596
0.04428134548859744
0.045455857248251165
0.00928334237413254
0.07524776889141842
0.11414445725448397
-0.023393437850971126
0.010724436189797718
0.0830979139128017
-0.023405180531361296
0.011267128855931043
0.03707007405620635
0.06568404448630215
-0.043857640987810725
0.048223345513967536
-0.019802356492139486
-0.014883893738907207
0.012183118242052433
0.014219519932443227
0.009481862429603867
0.02438262169440203
0.0065365055004271005
-0.1447534993603409
0.02143025714955362
0.050721839311384166
0.005728039852616282
-0.0012164785137034684
0.018068816180867274
0.020219387765124372
0.017241602862652448
-0.06760592240835873
-0.023082759280615758
-0.034989823940977875
0.024023179325915356
-0.009098753139126678
-0.018142105363916885
-0.030388882794385053
0.02685836791934525
-0.08325077632465233
0.012515838092191917
-0.022358351501524085
0.013949775162731019
-0.03708954913379322
-0.02879555031887859
-0.04629208517516575
0.015606820787437135
0.02152537985363485
0.05610583926839468
0.05392912295128693
0.0019429056112213996
0.059126780775050375
-0.010985099035523208
-0.05355525785084384
0.05370702466569667
0.001605559106182759
-0.015223712550874555
0.025834473736673844
-0.03669036921610916
-0.040745134138026946
-0.0699758676257071
-0.024583705649132398
0.015323681415214377
-0.007486021029626616
-0.10571664718698569
0.048262420297538945
0.01897589190836521
0.0677193520697583
-0.035537632761312034
0.007156495101619146
0.006649375301309247
-0.03366332819004084
0.025608922709794413
-0.025746352520452216
-0.06425847500770221
0.12459966594276771
0.06076188351380845
0.031010031772192415
-0.0806738198525791
0.032201465963666985
-0.0442387897757735
-0.022325589742779973
-0.06501740897150188
0.034511555578278987
0.034791751636903276
-0.01407659042869503
0.015882523782515517
-0.009164591028690541
0.08564452198170798
-0.030982300931923237
-0.04326981265132277
0.023315645168608165
0.031850783539076936
-0.01559408403880657
0.03212519960345163
0.4573940685533799
1.0360228481409421
0.5566570825335592
0.05522347177936665
-0.017528230017803705
-0.017274275038313632
0.02885346464126013
-0.041236297512354594
-0.0453774016622418
0.029806012337705003
-0.03159381189530377
-0.027480305979488626
-0.05433061959674628
-0.04620457715193191
0.03568483209227862
-0.0697818129810374
-0.07856953771037406
0.0406810960620332
0.019277938714952512
-0.04878772088293103
-0.0032304589620962432
-0.004793335380741809
0.05420682021323282
-0.0477518504226396
-0.006375383604251184
0.015486257688238102
-0.0342755080357546
0.02335078333146959
-0.14378163014031747
0.02094228463204115
-0.014231040916183962
0.014379524801542691
0.023817650062393475
-0.0357871089936401
-0.05171395705166431
-0.08031581686262734
-0.033584547684271236
-0.0014141052565596341
0.0734292580013235
-0.07086912584677922
0.04658715196243657
-0.03744613006690497
-0.0016554342015092718
0.02485253774983848
0.005700993466766433
-0.014860213079972913
-0.05581680212859204
-0.017990673325072384
-0.026186899206880707
-0.03227403727080942
0.01254966482813682
-0.030132549680163163
-0.08896796850477756
0.08729440724513549
0.044493697569076035
-0.0245035739554145
0.020807170738697173
-0.005371230176658572
0.057346093687824395
0.03890087396658434
-0.09937523149641367
0.004541186066709143
0.09709232418511037
0.04690383059181641
-0.03403034672589065
0.049536734916140024
0.007579687075738344
-0.05671960643068801
-0.0025625875668775235
0.06038788696867952
0.04275007749138078
0.052497897696401424
-0.03016860911409512
0.07681919413840453
-0.030903211156597866
-0.038153017032660365
-0.02746571208850402
0.040406760691072505
0.0265806214284028
0.10291370950959006
-0.05869655562344131
0.05769121472967971
0.070515166233865
0.013872514203984006
0.00645268084418035
-0.06480558827490361
0.04571792039366869
0.026243696207294855
-0.03335537735297199
-0.07861382974578161
0.04010834859446448
0.006992130977708376
-0.024217852340504893
-0.036936249940677526
-0.06073499138008558
-0.0271741843806207
0.042648403267651826
-0.003220187604547037
-0.07670154904549734
-0.08142313084900744
0.04844840332079265
-0.004489953566276573
0.008824836549778121
0.024155145308019058
-0.05479370884903743
-0.046510431693386645
-0.035215964891479455
-0.05776223339698819
-0.07192761174431575
-0.07411148080549934
0.01622439519108221
0.007626356995224841
0.0008060835628459777
0.038857140222657086
0.008030286560207102
-0.09350716765638248
-0.00165969524661535
0.07606928448750404
0.039882714013941375
-0.054718258475845355
-0.002311293428799673
-0.005709972908527739
0.016943898932374267
0.038340002502496834
-0.013615288541877383
0.08166709651330262
-0.043346270930318676
-0.009915665726188601
0.0341685019635409
0.0643000905892289
-0.03311381606301159
0.041181630359647836
-0.0011847295689540551
-0.07774737526349246
-0.00036658202527259175
0.018457663247323668
-0.07169918474509863
-0.008628946000813502
0.0444712064136111
0.008001773609845653
-0.022476969682391663
0.007531837129663276
0.1386572961137163
-0.017011617866388103
-0.060119131483195934
0.05118657497560572
0.05550687706412667
-0.05141341904864841
0.08576801890075456
0.04804719987905277
-0.013379976420202895
0.017514270507865217
-0.04663924670641647
-0.01889849766237299
0.002032168669935369
-0.07753725338657928
0.02420488180672791
0.005901427781422965
-0.07039139964932062
-0.041995473110013365
0.04084966678169656
0.05529135518042776
-0.09710916841891469
0.009327464035521687
-0.013349177141523902
-0.02915015191110339
-0.016813585196991894
-0.041407935592535264
0.05441145602279368
0.021908830464533288
-0.0381200283457995
0.05670660379609165
-0.045488912924094904
0.1690219783499084
0.08781313578800758
-0.057370710806905825
0.015288814028538981
-0.056210683620623904
-0.03325267753136054
0.0314995761102942
0.033941132651951825
-0.03866463987006354
0.048408714223644685
-0.033600144788927505
0.007611232870451796
0.09487276395455618
-0.09226556989510176
0.05885484409126737
0.04422516066201995
0.02067877479723703
-0.02638370404682085
0.002450538050131031
0.012391606598988542
0.02208717769021427
0.0018737699831703045
-0.0639095967520412
0.01732382232034622
0.03195908185805014
-0.07178918431529048
-0.037828665520640146
0.060082328417984054
-0.004246113475943613
0.0188676961619028
-0.022761996625036852
-0.016632276347974196
0.01735818129207868
-0.04765686109112738
0.1382296801821617
0.4571512781173406
0.9612478043683632
0.5207311430910151
0.016383709594517307
0.010200129466178952
-0.08777039170665489
-0.07537191957533912
-0.060742913660854714
-0.05169704529136905
-0.02201763155627491
-0.03509265517209215
0.048060723532048766
0.04875962443998263
0.03880389609813335
0.002938253704304251
0.030745028025386464
0.02171109114611783
0.0497074805622211
0.015194409151251177
0.02923451413191922
-0.016768642717683156
-0.0241261017241949
0.07148554094960631
0.00266645743209703
0.0060822038779429904
-0.01663331995197589
-0.03730453779061008
-0.13712085572582872
0.019983656451934416
0.048892319665966195
-0.11336354134009959
-0.005804779419051487
0.0477048127485184
-0.02284128754043613
0.12309209449141366
-0.05727533301895413
-0.06142641992740425
-0.058966480239376055
-0.029844351213963224
-0.01182437089596812
0.021890705510277293
-0.02074021362455998
-0.048338731490676294
0.003732921984832809
0.026860194199189242
0.04735636983286204
0.006970660199546998
0.048097912015370635
-0.08160242856777906
-0.04909659120326001
0.07505055701501367
-0.009080081319773758
0.015150395197521647
0.06117955731680624
0.03454990656816529
0.156856402240944
-0.045386430662902724
0.040819863292032334
0.10831200279237861
-0.00889265990747757
0.021741771526278916
-0.007185019932542492
-0.03873914146979106
0.09421372451675773
-0.029688281357848567
-0.034047923452548055
-0.01549259922681515
-0.013967491038141482
-0.06219218404636956
-0.0850665083311659
-0.056806599238650814
0.009426769990864975
0.03398099009769814
-0.06258576676302886
0.07356439821790144
0.060161209919333714
0.0025769075106221537
0.03112535773196694
-0.027132503675075643
0.012542923790337543
0.06680326204543088
0.004385521556804431
-0.008934196575105012
0.05501797693064038
-0.004711232676232634
-0.006787211731102451
-0.060636274584096456
0.07766997446479129
-0.1399983588129775
0.03940682486069837
0.022673960342348105
-0.006781130541572977
-0.015399201479653983
0.03518916763080269
-0.11589174979467941
-0.04789698542487469
-0.012829572760386404
0.01724700479381396
-0.0333924675112704
0.006237460944616156
-0.019402276178500124
0.002422559412955805
-0.033338361664864875
0.03536457541141256
0.04264072480970707
0.09039440931644042
-0.0034683724406540336
0.0675745497249725
-0.04291530152232808
-0.07827171507241912
-0.0754436938897093
0.0916030532692112
0.02319665517944232
0.0010342406021971475
-0.01528193340611255
-0.009814214705110846
0.06181212039543798
-0.02552036929861394
-0.03225545879676705
-0.04557414914095408
0.052286095753217604
-0.03444574106913096
-0.0916632031226221
-0.06301844654184481
-0.07298363902949921
-0.004479512810765938
-0.003315272903726586
-0.010713954656821935
-0.0768026770572051
0.06420933419345919
-0.04458266205881568
0.0015152178482970638
0.05581398192431961
0.010072694619820632
0.07436636914633814
-0.04432152602011305
-0.044031716401954274
0.09290528515883319
-0.041740296884066705
0.07069114698127983
-0.0803740074289505
0.0029920244701199545
-0.05471151146629765
-0.008808895430490146
0.03237438097859718
0.00986568903881467
-0.011014294088100283
-0.020277291891020788
-0.036696962153787135
-0.04137764264786356
-0.012353048658187385
0.049434696221254425
-0.006228524256445296
0.010131451272874296
0.005666655244138209
0.040287297843748085
0.057984153439824604
-0.030665082152183717
-0.028958003196291795
0.07676016867446878
0.022497111477488046
-0.11031174300539817
-0.08885213632183825
0.049094448074190125
-0.05098649984193631
0.10886221699867263
-0.030459142121859403
0.08854368168081247
0.042637608752775065
-0.026483623845512845
-0.07924617145076944
0.012504967246531114
0.02665586691358542
0.018066209916938754
0.08044115061977027
-0.05074131865723361
-0.03173848837358058
0.0212517396980331
0.07307378625615714
0.03430510640567183
-0.11374931281529077
0.027196894035038766
0.03485783613093205
-0.08196940418852194
0.04919178524260252
-0.03807651675486637
-0.00025653312625371807
0.010369784356556014
-0.06698684797790698
-0.05849786937530191
0.06332371572041638
-0.006583464293043112
0.02362665822101442
-0.016502080335652685
-0.06907479364576656
-0.04833030342661273
0.029644400375901138
-0.03773058151405003
0.11014153239978519
0.023348745295607085
-0.01639499977220822
-0.08629940581000711
0.013940668770550292
0.010812186543750126
0.05753955018490493
-0.014284038139665556
0.05733998101216731
-0.0028858604655389915
-0.07110199683851436
0.07121255547484992
-0.042774653306617484
0.10429079875282568
0.13571535132198748
0.43382672058809185
0.9867217393337706
0.5557786615413728
0.024303775205061523
-0.025185889467399615
-0.047653401088722874
0.05501031750904528
0.003081653152142762
0.07698746709386359
-0.043303611750432514
-0.03667027226254098
-0.00553589727199829
-0.044499549535098167
0.03491896589312347
-0.0086447331358864
-0.022208362681651134
-0.03775416026116464
-0.05692119210781299
0.07381074647398249
-0.038611469446586895
0.03043368416568007
-0.10936815819697775
0.01810330602967945
0.005344931239006409
0.0036867863077024244
-0.05304133868364215
-0.04775571261713672
0.018830500820544188
0.016996141381670164
-0.015987370886654344
-0.024860132761094555
-0.07887482724395095
-0.059156065699800434
-0.0735654936415932
-0.11123295429150122
-0.06658527268607398
-0.006959092689913757
-0.016592416129246387
0.008827860947714126
-0.02564745702960492
0.07438255604158232
0.10128872045509336
0.04190308368451451
0.0808333702069155
0.019422474510600782
0.08122437953278527
-0.03706298421644709
-0.015355704092082362
-0.009041190382419297
0.0024182946402138295
-0.08009940739549637
-0.0867114357368418
-0.03570523680292751
0.029056377908218262
-0.06616320926157744
0.04295409006723734
0.0024416338379194768
0.10416881964572747
-0.057069358403803463
0.03738994602404339
-0.04166549023995353
-0.08320079421994016
-0.00901794745861095
0.05734992907369078
0.04454324460573935
0.0017152598966334001
-0.056987550887995723
-0.06326201291639393
0.02741928786684162
-0.06466450373387367
0.011278785589350028
0.06037120376643863
-0.008034158617841685
-0.030874533240983455
-0.05981215227893061
0.012879759133314572
0.017743697158654096
0.014780917675599602
0.02452914627990866
-0.03322014794248936
-0.01750682811505008
-0.04677723053666786
0.018200416824468157
0.029268090468726617
0.09806578794816109
-0.09160954290337274
-0.029952852233628757
0.0356373196738946
-0.013957451557306511
-0.059018461821863204
0.0416893312862071
0.03118404573698251
-0.025462162889503565
-0.0002334509318255007
-0.013544481796642877
0.04893017804298006
0.05901023367560812
0.011085299809659659
-0.03864300285707624
-0.08316056364316914
-0.03472027637504112
0.004922129791427266
-0.09866253765823059
0.013707418140228423
0.013655315266284796
0.0774225254058875
-0.08921037995757752
0.0663095685873598
-0.017698567433869966
-0.07388340725109052
0.004890563225189312
0.008706938220415785
-0.0679205778268692
-0.028679877537192967
0.01289756031223052
0.046834090364670955
0.05805047085473552
-0.10287204702784124
0.06997531705150604
0.0031563585007654705
-0.016267261427126267
-0.17172396950202418
-0.12088311295089707
0.03354880474592
0.02105444889287935
-0.001843243370371996
0.008980064710741522
-0.10543399269757421
-0.12517036307754276
-0.13650328837134415
-0.060272222112400145
0.010689847235187264
0.0751540381332313
0.0016702689516943645
0.03846278172471951
0.005362348463439039
0.04190547560090441
-0.07173703158599222
-0.02095151510619385
0.00783921763289938
-0.02543589431953406
0.0069715383396533066
-0.04542335267697729
0.025540711818277547
0.02793327175492334
0.09528400534022247
-0.04454636338211335
-0.07389445288044712
0.0010861366145664495
0.05365189008766842
-0.0014188214607342008
0.024242551824657267
0.017077297532286314
0.0009587956719538525
0.09684306232414629
-0.02289873276519927
0.0024567988792747555
-0.01840372520342122
0.0747344639664474
-0.05282757068872677
-0.06639902500766072
0.011880243274522424
-0.025047733636134828
-0.005087685779062249
0.06494951678872027
0.05473599406428316
0.03981269967761402
0.05231403525591678
0.07508913454955093
0.06991905271213018
0.043483131229172134
0.006851769672425927
-0.014113758035101355
-0.02166018085606413
0.047254092805464
-0.014908947068438861
-0.0564645992620541
0.007301312176225669
0.02453386109524865
-0.14188614082812787
-0.03373584579012965
0.10123764007256118
-0.057174617013626194
-0.11326480749334406
0.0010080173480986096
-0.026860298258211096
0.041894482897931226
0.0001710496593589257
-0.1672625284168314
0.04041656741103876
-0.052892389300990994
0.11927055230889892
0.5751879539155932
0.9481464996751364
0.48210972625518894
0.11776923028618044
0.010706653010660427
-0.09937151324050164
0.03642645784870326
-0.018258957280061407
-0.03622847113698223
0.049003332174408026
0.007317903716732937
0.06633869595591523
0.007213958225115841
-0.03936000038681853
-0.050281694920097146
0.020673494857802486
-0.12600855658780838
-0.046362910206216044
0.016733805630803403
0.03519833861707727
0.05568808298184981
0.057462403609167656
0.10442239298991166
0.07209693531553463
0.0405105512273405
-0.0806225640944519
-0.0026108183048258564
-0.016417074259280007
-0.030244137389154747
0.0002202487653895546
0.15688895365584876
-0.022034564100609503
0.02516445623894896
0.008158136419237447
0.008003725966624301
-0.00290891413523592
-0.04252719151547755
0.020368402094401595
0.020735786013027384
0.021533944157433583
0.008259775014675931
0.0564176303631193
-0.09322725295338852
-0.0014018304534172002
-0.029588175345564505
-0.01473652577755274
0.03434853585756635
0.0075844572980919515
0.04658349963047552
-0.020192255927778204
-0.04697350423778644
0.03975429617257542
-0.02464638445358732
-0.015447107462871514
0.019697344400327922
0.0817396535772565
0.012896379304054427
-0.11759664608058601
0.01181777484898268
0.02611264250206524
0.08216222382685097
-0.04491159131806257
-0.013111647031064398
0.042802991270987405
0.01061123544726059
-0.033055096634612945
-0.05886716100404921
-0.014679500295326983
-0.054989746656421756
0.09759257251542676
-0.014973815323455231
0.060653086592737264
-0.03543214976097575
0.02057558047692572
-0.057334143564726936
0.05872149283636724
0.0148380661076766
0.018024835426815006
0.03579266200348012
-0.0011425007611267717
-0.006657004173665278
0.04793193105688878
0.09476987245490594
-0.02255144458673504
0.00750358240412482
0.049970497921568435
0.019601868764413232
-0.04862279263814264
-0.021278388552634534
0.05547996562644203
-0.008230096250808496
-0.006868384790441009
-0.04455564249438946
-0.004647029377094223
0.024292164887371546
-0.06295389865311722
0.04243608148681486
0.07393690038257843
0.02751403171649887
0.03530252063915494
0.027620632299807643
0.028066431389232496
-0.008554685156134464
0.02740862623147454
-0.11184422427252808
0.006747990771501251
0.02175239825927361
0.01271988277274592
0.01676529511119342
0.003087241115370645
0.01078283604008612
-0.047857697999408255
0.0017957248086723785
-0.07452365200066
-0.03294930387047689
-0.0008162024681702027
-0.0029821060463140953
0.047634289175715785
0.07364073034778755
0.014667632182610755
-0.03634549364395944
0.022649864750733
0.04674655184117214
-0.011497368283318297
-0.011175579725568603
-0.10475872740866071
0.03374212753104421
-0.07388422694968964
-0.008661867722475859
-0.08281585454638624
0.06437465903895286
0.005677746620797068
-0.06495321443539025
-0.0036827668876095346
0.041778724963983827
0.037661961571735916
0.07518193645871055
-0.011253290004910425
-0.0369685893076873
-0.02500226662391644
0.01895308675808767
-0.02057975343088199
0.04747956078963106
0.01988199207659374
-0.0042182921536350485
0.06658969020148443
0.04817741148889063
-0.003284421874211642
0.09408637977405179
0.016963562957681307
0.019522284950183624
0.034415979925614036
-0.02187749631182142
-0.07588274458262699
0.0799062332007564
0.0668180981261524
0.05524395711244362
-0.039746329921398205
0.04196357662433792
0.05656695891639159
0.014102224648082366
0.09548484494500685
0.05514906919781311
0.0005157033662588468
0.03328991376434737
-0.0036233707921153957
0.10699854212766276
0.002640531535594819
0.006403392471964996
-0.0324466616374063
-0.01935402223240947
0.06424545567425927
0.026639955639866632
-0.0105054924942063
-0.05783287892999196
0.055204988353970724
0.019055313417305753
-0.07122631046660899
-0.022000857103449113
-0.06032556380060239
0.00886407355297556
-0.0016450902477337572
-0.06691423685299501
-0.01846200325700329
-0.009258787644731524
-0.015272506923294333
0.03554244258776844
0.04017146163816145
0.07895689530591435
-0.035531830089782154
-0.026420494001069057
0.008925675609379239
0.09483929434168147
-0.08379351971182039
0.03388583018811052
0.04362680679122611
0.04750081220193796
-0.0766839554215553
-0.004967722125185004
0.06053850298484912
-0.0054653171153784715
0.02175866056231488
-0.009069296133134277
0.008521943932652142
0.01512985000159965
-0.028900458325305613
0.011280829784685557
0.035377244426633044
0.004468436944171964
0.014638513580758206
0.01054546191026085
0.006499606495965807
-0.04712765653001063
0.007143342377838504
0.05025541524180698
0.4499321158031669
1.0578245596076523
0.4723684297968403
0.13496438992363408
0.04430561702134582
-0.013786824868666775
0.06164917548374556
0.009950314246777552
0.03839234224919635
0.08210088857386416
0.038981740021424294
0.011557511613040047
0.05665263436598771
-0.0698012404554768
-0.043003272944008596
0.05784301222316823
0.01074067587445295
0.10702557411398346
-0.033136079878020704
0.0011564676952887337
0.11349941434771148
0.0017566599286225745
-0.0375428202093261
0.012929578930738768
0.040567791766242416
0.051117325150835384
0.07336301481516658
0.022818184379566214
0.012952997743038434
0.05259381368220635
0.03679125023095564
-0.008179308729753506
-0.066441364108229
-0.02269912806812622
-0.017047369281346116
0.011367345942292838
0.018559421979885384
0.020799885803654078
-0.020906500943677273
-0.06678387342270424
0.09448945234795575
-0.07603826262589586
-0.1046460033756756
-0.023855860583071764
-0.006926914082906394
-0.048245474442774994
0.05852940758387529
-0.0025849988270193885
-0.014526664733391429
-0.003001471711830577
-0.02071839613279801
0.05661131755574326
0.061698320220711894
-0.02248315845107822
-0.019732710483468155
0.007008584796852718
-0.08759563316113744
-0.0833717320429313
0.005158363643194364
0.05381312054105894
0.05438469464129617
0.050526682714528794
0.016133553488222027
0.06461103094190852
-0.04179287687436798
0.006845139797899236
-0.025427061248321437
0.0038277895402735254
-0.02259644960361369
-0.06355730831780658
-0.05785068700580198
-0.043171371373533586
0.010094807221882789
0.04066195937015055
-0.00669618936565558
0.0036514049309908877
0.037831439922132615
0.06098815931331528
-0.04042925600513336
-0.024046848033798935
0.04286963296389085
0.029099703462887934
-0.03809507047199036
-0.06227553973437571
0.0071022850283802095
-0.006587342914922745
0.02376680805868838
0.030142893524955795
0.0012465959723156478
-0.07029473499914704
0.034698513620660495
-0.026396323988151428
-0.07690453008230637
0.039327593303136454
-0.022519972279790922
-0.017460367020095773
0.014438742915916757
-0.02507924444453823
-0.061507373564503504
0.03862369322638881
0.0018068551391061804
0.04205019869310026
-0.05485069093877362
0.052547085937974504
-0.023649222681602397
0.062079684765805124
-0.04874167408610952
-0.10613978474880251
0.0840561330687718
0.0558889640478367
-0.07353555420053647
0.03529250165838977
-0.018154315821572634
0.004725698048173112
0.018490035416000927
0.050019639301301703
-0.02427829352666557
0.015876835548689915
0.019266485011059684
-0.021888989464415018
0.07024494752788128
0.05735099437027932
-0.031806742530956125
0.06920352153447104
-0.015470489695061044
0.0029908367952736076
0.03675593388865533
0.0021077026841712617
-0.04008491557336796
0.02966797771946534
-0.04450200745678765
0.011727617676175715
0.04889059402735576
0.027302217117570977
-0.020632210846731364
0.005033265709180662
-0.008202773014317708
0.00405540235044974
-0.035347312387936126
0.009154053619162083
-0.022156473412301782
-0.016042761731514695
0.08079677853632893
0.028631298854170192
0.049585765046224764
0.0030820256660933814
0.0445738426979318
0.06805296722558739
0.0032716351345839488
0.0346389031228029
0.021947742536866748
-0.022135275079905578
0.030165637002421197
-0.06968995406155554
0.00903420432507778
-0.014792141763876146
-0.008019461656572005
0.07646863271077685
-0.016772351283791242
0.11946772717085884
0.11648449906818051
-0.006207561749106895
-0.03161645018507222
0.04506065410567537
-0.006765324737425614
-0.06327507909543888
0.016764052308419524
0.04654212236195413
-0.006781787798736786
-0.08783150939853249
0.024098214096116514
0.04203655271886101
-0.07989978943327466
-0.03502058392218247
-0.06251230994573663
-0.05625250422288946
0.005832089643209627
-0.05139665796555623
0.01629317615750874
-0.019575675997851788
-0.08502651633767283
-0.1040908640164821
-0.06671764652832365
-0.020396683267449353
-0.01542701771203074
0.06518455660432462
0.010784790695531935
-0.05907097174751557
0.06264881480310892
-0.12518466584726778
-0.1204514898950203
-0.0017087606199178863
0.07840045455840015
0.06889262817671359
-0.022399483040530962
-0.03172894429183317
-0.0076217853761769904
-0.0417578297286477
0.02059029101059203
0.0663820691555793
0.08215612126378112
0.5259479159561995
1.0131763727313579
0.4711052484176427
0.08177681958229273
0.06604233276515833
0.039312985186912855
0.13717794075186138
0.07668975237840002
-0.018880729964267907
0.00036598083693460193
-0.022440276107551935
0.02356357376380304
-0.02569899664337201
-0.038428485044499396
-0.039990744509678794
0.06359550477034795
0.033159118395746215
-0.05464673163759855
-0.04005795586722886
-0.02443490253069488
-0.14549193155790524
0.02309538905082295
0.05496053663294388
0.06744739964901611
-0.0005787933110044025
-0.0655362068893205
-0.013800744202912186
0.026524369851632326
0.07997181207872187
0.014016714644312893
0.027291035977638996
0.0044094702286302705
-0.02886251438039595
-0.007933820034525061
-0.01294151286003999
-0.0332003916008694
-0.013766008583960085
0.07004700757677175
-0.010331946204681855
0.08373024334739093
0.0940167542302538
0.02186190275149462
0.00666265922265134
-0.0057907327959567986
-0.05173208932425574
-0.08053126637502098
-0.026287554618130055
0.03262143550920862
0.008932007973136159
-0.016498975363968008
-0.009899508631502883
-0.12969290136130834
-0.07567375854705889
0.07066114614910836
-0.0366208087705093
-0.009699173997777357
0.023396551940352322
-0.025213765131066674
-0.004652112963343244
0.040893505936371276
0.00016462598116473803
0.043153538806732505
-0.02090855437386384
0.0399559192629674
0.13804669600981348
-0.01364787103735028
-0.002419365940018384
0.00367704836551359
-0.012161805898748553
-0.05143440007021266
-0.03451644984575676
-0.01366560209714669
0.07530989767044294
0.03125017287166698
-0.04638950888705944
-0.08484429912644839
0.021564079066053607
-0.0010760200929012423
0.03954744178946966
-0.023238567132945323
-0.018651397165520108
0.017815668523267176
-0.021832180346780666
0.05688298702840994
0.020695651112122203
0.00680407656491073
-0.08630606151624472
-0.08262371948232093
-0.02809221135023862
-0.09549741994446342
-0.010813515064891624
0.09977569799197285
-0.06683980081885994
-0.11461255496941512
0.116879577529453
-0.040877530567879315
-0.016856539787580265
0.06107796784718568
-0.007597346338250466
0.09048831170657039
-0.0321129595893408
0.03660799411628256
-0.08841894396144567
0.05764511723480025
0.04513888325444326
0.021431426750481687
0.031312336146577656
-0.11914106886113443
0.12960964208278772
-0.039567523240613627
-0.0344210556917462
-0.06916264319548343
0.02106773603674438
-0.025025081239187383
0.03498167721967046
0.06059353572484495
0.007087752700772866
0.0577445273338231
0.1536433474838047
0.02924769661564909
0.05278024863232979
0.05377223809025127
-0.00043110419141176315
-0.0455479531424898
0.031251309653264024
-0.0030374198620080964
-0.05162115777654741
0.04965666674186841
0.011421699408930166
0.01902074543374388
0.011112964777290513
0.05518605247624362
-0.01379044906644599
-0.09111172257668368
0.034453919001074335
-0.04223865736151013
0.0003463951902740398
0.08416729960309631
0.07990271720909871
-0.0413310871072039
0.008813473531041114
0.0685994146284899
0.07676537938184852
0.04968237563556818
0.10940095689737515
-0.08458548241847064
0.023206761717805648
-0.008354685983595959
0.04131536422143515
-0.008459792247762018
0.07055424442710304
-0.044641333538952
-0.00441126781626805
-0.01402533568588958
0.040860313984683504
0.005473354058506137
0.02171511471581747
-0.04100605621594549
-0.06647891174098823
0.06283039454458877
-0.013089447976026063
-0.056470021752791824
-0.027546191996593763
0.033906135260554505
0.04257804653701742
-0.040480516464402004
0.06725184077779071
0.038221509972747494
0.024868372575929984
-0.10305856669451355
-0.011926497805988224
-0.028729917511718474
0.08073245812288887
0.023912035993117198
-0.043224670799229765
0.0022324167086159143
0.005659011176079653
-0.18154575735816394
-0.03064660094726368
0.04103231044585495
-0.08914493222025917
-0.08236144578018001
-0.028939806179916795
-0.006437953036682389
-0.022478416040413406
-0.15113443106916533
-0.013839700540269556
0.0755040071633945
0.010357883115655053
-0.027725516523317745
-0.015143710533782842
-0.03633243981899053
0.03751563517618232
0.019799714034673413
0.0009721685671118781
-0.02515452343751543
-0.06672760235683727
-0.01370432562901349
0.1330749620216494
-0.033843030643811466
0.03790067639456935
0.042501166464673855
-0.029847196200434908
-0.13665292682307947
0.05802524547152599
0.013721571870238881
-0.1186000155028383
0.0259292743607826
-0.04177089280314187
0.0815842645315707
0.052203176154525605
-0.028278057614636587
-0.00030853119705914734
0.05540066265773505
-0.042049027194253005
0.011326652025333395
0.053113215362944444
0.036699095085513625
0.1316370017648336
0.5573275469998996
0.9630583789082127
0.43430285877206254
0.18827976735983137
-0.009766985795948195
-0.05372994754093723
-0.08256230486985569
0.05512713662805427
-0.08408673742095385
0.030934639759930563
0.10904375052842064
0.06896127253635563
-0.04364209231222971
-0.04521103533920223
0.0009089289403754668
0.036612876578037266
0.040418835844327025
0.02465540681465955
-0.03606249615373431
-0.02118904871188414
0.010060401962180197
-0.006783279311785136
-0.0034524557271901294
0.15617213205002636
-0.026866666234504066
0.038410605182057696
-0.07057697665942096
-0.02701949299281295
0.011876988916881973
0.06512408285271759
0.06349896223279593
0.022256736173401105
0.06994279414654656
0.005631177292084357
-0.0023127866542411823
-0.03993492111513193
0.030979862792777757
0.04357607900228548
0.05049321949843937
0.009820233742590202
0.030764856391331776
-0.027860054012197356
0.014582010831523249
-0.015149886445161449
0.09565279945500538
-0.04670208705161996
0.024193943893752914
0.02849817588170661
0.08852822421165583
-0.029437960594059894
-0.00961849907607095
-0.02223887081265083
0.09431758495454191
0.003692489396653185
-0.04490525230371946
0.03041222960987581
0.01971786615278309
0.11109453290967296
-0.015707420826048254
0.03267126715109001
-0.06770290745811795
-0.03219488772272765
-0.04455677462999656
0.003850042648251284
0.021929070219580283
-0.08223629893179452
0.0219798500945831
-0.011306388321910128
-0.02477643628353912
-0.011061960129642846
-0.015303393061476595
-0.04988815698845779
-0.009564797570076493
0.037242598309983325
0.08162049867874165
-0.018195266554989212
-0.02487261112945115
-0.07427129553744678
0.053766936806645065
-0.007421302862709926
-0.021664446487049686
-0.0033297837039490477
-0.040937695081976457
-0.006717507398302049
0.022950564173587956
-0.023342785398747613
-0.02257037905740332
0.047877083714425284
-0.036892676057771794
0.06296155580718411
-0.011813880825002537
0.06571444067304555
0.00576874425041592
-0.10809370076906243
0.0026063346460551947
0.03123984503469662
0.006863697047230623
0.047269526458574726
-0.17136212439932866
0.0018526516356908167
0.011489398413438531
-0.08072535098880296
-0.04969340714416152
-0.04361718897072517
0.017141558052567434
-0.03184184263294996
-0.046039746270646914
-0.07020659569211656
0.034092851124078186
0.07335103692768036
0.02555625659593307
0.051253777111521154
-0.05493079720278082
0.0013674851158903827
-0.0778289703733083
0.043161718584704786
0.005446851141935218
-0.02597094850931593
0.07816402728362822
0.01328243182793864
0.015357781894043885
-0.016481273067701935
-0.010543551599339061
0.06060389300146331
-0.09634184041542018
0.042553235189652316
-0.06774278685621492
0.07243909491173148
-0.014144347149065154
0.07190894777473078
0.05575455950103151
-0.012682253566343851
0.001621136754640348
-0.07521077939989002
0.059725871023508896
0.06401584217257789
-0.11042904472383774
0.009076607359697958
-0.024948034631137657
0.01421582884260497
-0.004903755470508541
-0.035195547418244065
0.0779659764700688
0.11034547828508555
0.04228699239857964
-0.04238926852243585
-0.03691752304357059
0.1250997424562807
0.004606414673614212
-0.07459010132052289
0.044261942460741166
0.0019896649416674406
0.014168681286233465
0.029255174953500475
-0.02059839852593172
0.01687817881418181
-0.0032045312375947425
0.11409296246167773
0.004188620111260857
0.021402114508437944
-0.045968944061173043
0.06090443468572815
-0.05162669869314332
0.017019983769300924
0.07559883385956034
-0.11818573101873533
-0.025252335803360244
-0.018319370321113908
-0.09167500348667136
-0.04328010938812516
0.05859758239574547
0.03972744756484212
-0.007631285785906234
0.07922486682156918
0.045906690466932465
0.08861017253929371
0.0686049657377927
-0.03383315985499256
0.027778345213352935
0.10705732880830249
0.0011965092350844982
-0.023879060899919063
0.03569613320112805
-0.04046455480119829
0.025056044060777688
0.0744777907168016
0.07961092451183878
0.00014312852689547226
-0.010298189575746488
0.008201314117152601
0.026073578863657083
-0.06133148127266766
-0.03204067146250394
-0.08832841230832143
-0.06458584200603729
0.019201850327057977
-0.032701214456150866
-0.022199697838382534
0.06095894704974312
0.4748941076893792
1.0391744089657027
0.510369568612763
0.07772541154847441
0.039578485503066335
0.06147250128126405
-0.05812803500483517
0.0004301615000446413
-0.1110514711995968
0.029388022680465888
-0.017396381113124675
0.1670401387547643
0.07278249682525399
-0.08184886930009666
-0.09546028335116308
-0.054061818970618875
-0.055392399211181824
-0.0035679759075255162
0.01123685467045812
0.005107010162080614
-0.035259737799262995
0.02877402175951025
-0.03573594753943024
0.05537814797697802
0.01652557848450099
-0.0399251545855003
0.009729858771142087
0.10229873690236789
0.04031703250774157
0.053639164653368335
-0.0013605966421911737
-0.0367656120603996
0.023771776571192015
-0.09219774424812406
0.01402600912285075
0.05688584933562538
-0.06441733572641002
-0.0949758333595882
0.07809573292674586
0.0825819312422739
-0.017699632622580178
-0.09523485179615046
0.07176091650984141
0.0656179657495477
0.12081778305519578
-0.03329455142791029
0.05165365507591401
0.05904591103196283
-0.00538693255871847
-0.019775487602897615
0.047797608187560625
0.06638745351811942
-0.008236909970214291
-0.07161754140075786
0.04375264374283436
0.030895160508335597
-0.030551747989485175
-0.07204816045472469
0.023191271622469548
0.017605937081406734
-0.023937084922798245
0.06344000702833826
0.00890290089217395
-0.009469088737544791
0.03200653131058247
-0.009543469779890219
-0.05355883644149043
0.026616471752672618
-0.04559601789270137
-0.03919021039680816
-0.01835304558464208
0.009265673655146188
0.022409898105830228
0.07536201668513162
-0.020616356040459305
-0.046144796161272136
-0.11897458604681117
-0.05447261930313412
0.058395780858447315
0.03891568269134183
0.05836974902409248
-0.012082708810097752
-0.01941803624759399
-0.009524151723695098
0.02183405760727811
0.018568785519446736
-0.06261572332491068
0.029099813632240575
0.07017900235346754
-0.012060590916032315
-0.008556855373347287
0.04148685711223273
-0.029715685003298492
-0.07977593440479921
-0.003724800844855162
0.0009384799743790665
0.00044504893642350035
-0.026203051602325684
0.009092168783792796
-0.09355269505001823
0.052269354864027
0.051949838516620765
-0.029744377246694348
-0.05020271778675404
-0.03699154249769257
-0.034879063238287135
-0.04024047479229746
0.03515583017126697
0.004293205851656346
-0.09865770177773069
-0.11034767774526295
-0.10015503381736389
-0.08027495297605963
-0.01131296241115614
-0.0007410608194956666
0.0768443035389677
-0.06110828343580532
0.056756760520916605
-0.024326287784406195
0.023761399438159997
-0.025927405711984666
0.015276389736510673
-0.015070473768647008
-0.055174692038555545
-0.05365247141246872
-0.027885769702146457
0.05344826860303199
-0.00046703494120033145
-0.03921137083860143
-0.03472996428106818
-0.01846976474288973
-0.005490827268761173
0.0035271893060257313
0.04879177531084542
0.004131974096626684
0.008849998844626429
-0.11441876544604074
0.029117933698803212
0.07856961118378603
0.0292150565175418
0.0356279933220105
0.056512061207137226
-0.031677757993723715
-0.022946979268054002
-0.019308394440403987
-0.03845219359666736
0.05915385884792539
0.05477154983423668
-0.011468172328785192
0.012937610553663907
-0.133878087750909
-0.04724384848330376
0.029564553153133284
-0.04453583714866499
-0.08111166378229512
0.0982202377697114
0.11861244149872059
-0.021589189433938658
-0.047792955358294
-0.030156912166121826
-0.014410017086926928
0.017882811233495
0.03600495752365001
-0.028764909468203117
-0.024417247198264783
0.007057305982683404
-0.011074073845283498
-0.01750458432734418
-0.026898754342278747
0.015971277951816732
-0.0847812722555125
-0.002266008624894215
0.029216493372857966
-0.007050722529619139
-0.0005169416478758687
0.029739249025287042
0.008002967750752283
0.022635277925479088
0.004478688732138892
-0.020161442003897124
0.01860707734336333
-0.023908302363526965
0.003823553205761244
0.05945869114330128
-0.03860971916169136
0.017683745278678494
-0.025018984027515345
-0.029926948581627328
0.011297214813995867
-0.103739612162985
0.042025573323643234
-0.03993643616052758
0.025900432114666246
-0.009283211018913029
0.08103638450729764
-0.036447733968075
0.01249396662317637
-0.0027922791732841318
0.061749812151107066
0.04753926213070875
0.07345390550315871
0.08490841299173547
-0.026853288233458273
0.03443904277781676
-0.012422663915471992
-0.05274151966501053
-0.07406127601548819
0.013934476941470129
-0.11333074581203269
-0.06170118189856061
0.02168532495253387
0.03242471822628428
-0.02251175277349204
0.008029563821787725
0.17271197995046517
0.0512861048967774
0.5777777881999283
0.9921704782135264
0.4639800337853599
0.08020599387100646
-0.004752022422677811
-0.07311999642560237
-0.05247778688264763
0.009721090900219938
-0.007563867903429437
-0.031723399271887935
-0.017961489074667304
0.06025287277244706
-0.010107302509542464
-0.03676507269250325
0.0093873772396039
0.01163083842115483
0.0546796747183296
0.06976966556278388
-0.03517616340184315
-0.04758829425913404
0.01882511569347624
-0.008070971973353278
-0.048790359489755006
-0.025127106386783504
0.08597287682307303
-0.04014217601339511
0.01810235317843209
0.024907396224959147
0.008971327147408356
0.08861353974850761
-0.00849264184625277
0.002727317208106455
-0.022698946755216127
-0.00809906042248586
0.013654965904452185
-0.03679891762489932
-0.06413621589810008
-0.027253195892860366
0.1267468410951672
0.013530551450862412
0.10280818500616272
-0.000724409090126137
0.02914906061727206
0.01943523479603576
0.0473518652066603
0.0231732870969887
-0.008740709572680307
0.06144804676133461
0.038547502877705316
-0.03812711476951173
0.04232287620777113
-0.013857241658599929
-0.04763308047469154
0.03660412242509816
0.03115938770068262
0.0890145695333958
0.09206542872295173
0.06575431638581168
0.028183246151661095
0.03845798707791997
-0.061616462743232236
-0.02772340038529679
-0.012192075545511018
-0.04734402238346049
-0.001877258731704516
0.027883404497858963
-0.02760138600749352
-0.0014256177755082445
0.023922129169491147
-0.011018987583446724
0.01544022691805804
0.0184553410774287
0.019331207147934584
0.034215128555439615
0.04922438133813278
0.0552295266539796
-0.10518459237998457
0.037160820902940574
-0.026587302949147542
-0.03413772242778508
-0.03756602428102151
0.047789954707221596
0.021780996062448193
0.03575670782999639
-0.0016634431315839032
0.0726181363800797
0.09808909101935076
0.05240274977922739
-0.062045515927612094
0.023776456032436798
-0.065016202051156
0.06898457110072169
0.0023697530646463686
-0.019225546180990136
-0.10208276577338725
-0.01960138413435672
-0.003062937042257163
-0.01679543545936006
-0.09155508148102548
0.034676928174789616
0.03995997179164992
0.002781193234627615
0.022783646920188878
-0.025880812995696813
-0.04540912234459245
-0.06813807885297833
-0.03672708932667706
0.045704454821041615
0.055417771637551544
-0.003186948139382173
-0.024457672572256242
0.03403783768944163
-0.019014822643498512
0.0572227716906263
0.01931262628568481
0.08054743595577196
0.023442640299580677
-0.011439173908110905
0.10063219885595101
0.001223111289880848
-0.019686646186475643
-0.0004090184487652987
-0.0172126455929239
0.08070624873672966
-0.002151281579168842
0.07736571689433586
0.019274161064306777
-0.007258598782145798
-0.006931203719124906
0.04283755057174474
0.005643345639283126
-0.055207236038938394
0.035617738648030986
-0.049759675341266754
-0.015366899467154669
0.017947462036684982
-0.06944805544885617
-0.05169930483055494
0.025543987003394716
0.08855473049184923
0.03438667575022752
-0.024019230462278766
-0.011736253944012866
0.013819893856789176
-0.011191645981263994
-0.04756833774017685
0.06468717994508574
0.008695555536692197
0.02448448264947697
0.041392222030792215
0.05460486565565659
-0.025601527975279127
0.05214830227635288
-0.014401019958320316
0.003819145701307886
-0.03853051751312874
0.052322423933806074
0.07337864076551824
0.015723762252795516
-0.054758283859871394
0.01077746346238539
-0.0009382457938526393
-0.017006185516018676
0.007754769506356122
0.07638356748449382
0.09919944166616247
0.011705694783052653
0.015669052145209018
0.03876296288711017
-0.01796824508958673
-0.05719986330070634
-0.045704957786148054
0.016289392695590082
0.007878682839166344
0.023020660624360218
0.06625793682774081
-0.032472387603206504
0.11279438540624057
-0.003081918287380998
-0.053504043276308255
-0.0195223806810209
0.0400193569023202
0.06621864847244989
0.013910894185183986
0.1325519400692877
-0.0846199580135881
-0.04196706409047782
-0.014203916955415126
-0.0015961754078144656
0.02821548604665325
-0.10800090114898497
0.053959224995443804
0.005026988052908204
-0.01093582373449101
0.04816467575515776
0.09280679328337495
0.04003429679038706
0.04299439672293394
0.13865242035869502
0.458305316221948
0.9861183090612622
0.4929265441568979
0.06007349289480797
-0.011933127501014149
-0.02738015439771036
0.056953800711261986
0.03888505200808665
-0.06110796858366202
-0.052787174800090056
0.040039137868944044
0.09480709899234711
0.15314447988263963
0.03400231670105012
-0.015477337028097568
0.09152263156764563
-0.00442112256687922
-0.00810282849278252
-0.019362951855755876
-0.02939829384619544
-0.029995828396775788
-0.041952139688287926
0.022720063562704087
-0.006749986947613471
-0.07704061575508864
-0.024182136719913615
-0.008737440337686581
-0.0734774440664654
-0.02082508644817044
0.024841968053174172
-0.001834132741033031
0.05691414654953291
-0.009850136356831036
-0.026698402042546854
-0.023853902565523333
-0.05138074959734018
-0.01761399553295154
-0.1106466490710726
0.06550042730155951
-0.03829896417611266
0.0523319827977832
-0.058676370548538186
-0.05481179149002763
-0.06852678401131393
-0.046316746293018296
0.04427094464821588
0.06536939177213456
0.05146522682929442
0.028259181367468827
-0.055292080338569964
0.049007577039950706
-0.022810553675463405
0.04082272933433303
-0.04848145955479705
-0.033066643503684934
-0.06382536668153901
-0.03291222262728365
-0.07840059943377052
-0.021387483560544953
0.0616566805799868
0.11789249365605406
-0.029423175456817958
0.00711536673089406
0.04580367471491996
-0.0029917008942164855
0.009802601488761931
0.015088745839116183
-0.05910258801929046
0.027279285642011708
0.005052511248691667
-0.04005132368556753
0.05501374625630848
-0.0023120665696712496
0.0273420443730575
0.02594591483898458
-0.02744182811782251
-0.09599948848893987
-0.04279635007213078
-0.0898464908891478
0.10403774250287086
0.03287534945223452
-0.1076111040386749
0.03809805748686379
0.06058121768539242
0.02000577540557821
0.07404918626277114
0.023116441717876197
-0.05014601256367771
-0.016071353264015372
-0.06574038930633651
-0.06545312941565333
-0.043144778200653454
-0.02849292136465787
0.03280119819622442
0.053276573932353126
-0.04373737506685288
0.013001511867373928
-0.020445588634703526
-0.030058648253822953
0.0627270802909335
0.031157375609437883
0.04119486593305957
0.053076824583461794
0.0591929152016811
-0.06022267175401139
-0.04886596085095202
0.030156513202321635
0.0739024219532157
0.0360971701933728
0.008244086369529682
0.07766733805980419
-0.024570653147653845
-0.11638885513154251
-0.025630564490916316
0.005085805121063538
-0.00988950028055751
0.002057668903448494
0.024016132093692105
0.012499670876835137
-0.015690191700663606
0.12293699044322937
-0.02987954434187845
0.01807949532726049
0.031267852153203816
-0.024164792099368795
-0.05260588689862136
-0.01788103560450997
-0.008377806971102677
-0.0036452370941555887
-0.007661114182970927
0.044870848976379635
-0.0743870694696621
0.02431018622815046
0.046593768737899124
-0.028573031359741215
-0.03800468047579522
0.03161180059558179
0.051081707295769364
0.03386485336475028
-0.07048307056147844
0.03702758544355713
-0.0017550300795209695
-0.006990887445245942
0.0014916702106564034
0.052613428914463495
-0.028638754185473098
0.06177440345712544
-0.08168709802533192
-0.017976626094356973
0.09054540747918888
0.023244711436078994
0.020801005674457782
-0.021166042506587372
6.44591576194458e-05
0.03339904839614453
-0.007769529369890004
0.08438107083506559
0.04789245992663266
-0.022359607177326213
-0.11592450158183004
0.027131659107767155
-0.07739164910609289
-0.0756011074657148
0.02582924563886902
0.03912464574523836
0.051112041944294966
0.0315967518357424
-0.008455537936777753
-0.002242103302969703
0.04392043380609786
0.031223366341492195
0.020187280431350596
-0.0016558849386488419
0.031820354524350884
0.012955210329199593
0.020402432233810584
0.04339899311128888
0.018213738687729665
0.017731436180509104
0.06842387327886763
0.03714542177015392
0.04032553810203857
-0.02708171015301505
-0.03006619425842689
0.07483185148083625
-0.03793704992459859
0.007185151830195799
0.12250125908703169
0.010458841873306495
0.00788881679764562
-0.03583607037457774
-0.013999507734548014
-0.012357026618549101
-0.0018424658307429132
0.019149451093383806
0.07883326962604698
0.01791609495036468
0.0925084534568169
0.04212802320583295
-0.028584939991822756
-0.051596404447596
0.04896975503182339
-0.03671431552322842
0.027176142778275975
0.024134239561765886
0.4785807220778696
1.0081244360784132
0.5176044329223931
0.09144534583191057
0.061075990799650426
0.08380841668811578
-0.03879735942033327
0.03510060291520004
-0.014889436567835819
0.006942941001065874
-0.0013759485390417974
-0.09152579096172495
-0.026634147699062385
0.034700973153096365
-0.006410101994571466
0.026759534684206717
-0.04657022105909981
-0.054302359460763984
-0.009959880614533387
-0.0987558133370724
0.05182108788084571
0.02936380768908506
0.003974110730510023
0.008591315839957361
-0.00571612645895735
0.06110603851054373
0.009728894017132004
0.027697065536569962
-0.029001025094953132
0.0426850569806483
-0.05105448737983997
-0.03840362482859858
0.003119766735347647
-0.03876488523710286
-0.043373682537877385
0.03986975779036267
-0.04654941087017778
0.03269392123464152
-0.008802981973063404
-0.10158709821154649
-0.00020245644003718394
-0.07817164653670243
-0.02924220261613053
-0.0035172436655227326
0.008790284443284035
0.010909240691453263
0.016051325636539444
0.015212777838901634
-0.02073297649329952
-0.06708143633589767
-0.07126998750883365
-0.016725694845404315
0.020110344864683802
-0.0011559265758024297
0.004163760103247059
0.04913169081646645
0.06372204531101487
-0.058904785521349125
-0.029225813147848563
-0.09484168618709402
0.03761756070403206
-0.0301008193632143
0.028132722736239308
-0.049000447222045114
0.004919847956039324
0.03550669949432401
0.06033676235683767
-0.0013863078597596452
0.02031443922543029
0.010310614524696214
-0.03212883666174158
-0.01381217911376078
0.014072128314260638
0.05309322474138464
0.00591968072638841
-0.05303756727848363
-0.034733686392656435
0.014939347074344068
-0.04189940749148649
-0.1274487178776562
-0.08469883765514277
-0.06949200515219246
-0.03028166503091821
0.0253058790744692
-0.010252912677728985
0.01877294915554238
-0.02615436383800229
0.06887916640715606
-0.01116201726993317
-0.026130213841103755
0.007327136701039754
-0.013558123066349403
-0.01933971228386398
-0.00022464187388058842
-0.04504943436160936
0.002417831423774106
0.05895474987013524
0.012554330879109952
0.0013954650585542596
0.06498548314258715
0.023158774101070936
0.041779680022242666
0.062048646747257075
0.028888763266359453
0.007447579330978029
0.034851998533644166
-0.0577146450293624
0.06250248922027049
-0.10361211914302507
-0.007401925367944794
0.01526175194776747
-0.012597983973626742
-0.062279841706006416
0.0064356470996520315
0.08645876967028109
-0.06906136764626758
-0.04943957238409975
-0.0010763422539435954
0.07530814014349985
-0.0065127616999058995
0.061536552039100224
0.0905187169051581
0.008951569647410949
0.028719003039342494
-0.015690954458778227
-0.0063502059810130644
-0.05283016239865154
-0.07444144994158147
0.04283170246393125
-0.003628561336983723
0.031063945964705852
-0.01086469207802881
-0.1042153518062097
0.023537385053314017
0.10244606463422111
0.04469098107850872
0.00899486206640701
0.11662125212011508
0.06809181452728856
-0.012707153515763674
-0.01696601820391905
0.0252480922265962
0.08930496333934373
-0.023074776337844955
-0.010703560769145143
-0.04727852392324822
-0.0057295766448716276
0.02481342123420667
-0.036821336515659546
0.01048625350927288
0.07432630374716848
-0.06561166132722135
-0.0321509614185875
0.0778971903733937
-0.03662034477527204
0.033336460723002136
0.00485035635317911
0.022237724472584514
0.07437491257713334
-0.0351762890547505
0.021069626388482907
0.061950869316280466
-0.07198681150648507
-0.07807675466011407
0.05653062671015883
-0.035024436025132555
0.11371390946592162
-0.006643692400292601
-0.02389652015735129
-0.010475737076768039
0.006868143077655671
-0.01678385650483748
-0.05711713847101244
-0.01688564978839438
0.049888348983244735
0.045586759077772536
-0.04542182473055403
-0.008303905594467349
0.0018193774278730977
0.04783523467144826
-0.0016047821355848408
-0.03499081814807314
-0.049868640873621736
-0.03672616550812573
-0.019743062418113723
0.03933885579604855
-0.030098456914649574
0.06326082523684078
0.08739764035364062
-0.002327701926029892
0.006771626359504838
-0.04253112070087733
0.12352697975349865
-0.03109155903044591
-0.01781733706223671
-0.0018819735751425478
-0.04981204780156792
0.014449998375328522
-0.13320168962210235
0.055546583867116056
-0.022651156105028672
0.06348583968955003
-0.011508971113482317
-0.01920526342821349
0.03973391388272288
-0.06875545928946035
0.047231856003603856
0.08858358220128013
0.06370385788935293
0.005430248095934856
0.016479376622131243
-0.07020185347813068
-0.005252617312896171
-0.00011475156220548113
-0.0039026759345231437
-0.024448109504537963
-0.00801754021563903
-0.004466327185214051
-0.03998322252729755
0.06342113313285244
-0.1706588654780483
0.10566696724113163
0.5687801369364851
0.9639918348438122
0.5088317459747904
0.03153506236613246
-0.08703950313766126
-0.021498853251339343
-0.029594399857733225
-0.07282680506879384
0.0015837012757200651
-0.061978618345326045
-0.09012091699871663
0.05085191042281004
-0.0008287234638531199
0.09320352108664147
0.054141051428174714
-0.07211876217295347
0.060480563083659566
-0.05293062678603751
-0.052973728614127316
0.04391071595893681
0.11718797524445419
0.01222950674006437
-0.08970696013202606
-0.03922000829198457
0.03318148511487778
0.07749695347929482
0.09175384830219671
0.06321780178650277
0.055443188011149114
-0.05792789178690482
0.02339822902204693
-0.01476202908605662
0.006895564012624857
0.04117489073477923
0.006525223111502533
-0.04466356859266235
-0.03424634696100529
-0.020991382031253544
-0.06865111232670523
-0.028047664937947688
0.07281064831499305
-0.01019792409429969
-0.0006400789072787571
0.11905012421891548
0.047038187412735036
-0.013108078790503208
-0.04515953455860442
0.07604423479320817
-0.08156503737474018
-0.07209613526901937
0.012314740897825749
0.010429031563015594
-0.028590493711818654
-0.0055923576125386405
-0.10497050660494667
-0.028051278933408266
-0.12485937169870581
0.018251980156238603
0.058868906731538787
0.009123124668669762
0.0044870680855804
0.013457803807268307
-0.01704565156998203
0.0048827115150217645
-0.047994893242753564
-0.011813675959350655
-0.0007056260016825651
-0.020821205086434855
0.055934197099160615
-0.02634300740314462
-0.06363402764172009
-0.01598123687579733
0.05942105639720894
-0.005268041399296332
-0.05443735693059948
-0.10063997590062193
-0.001246329612498074
0.036437646748663476
-0.06303604433149047
0.09680382986339946
0.0021347410833977803
-0.00432747347190019
0.04759807363928481
0.013664130067370567
-0.0035994436346229405
0.032584169066739256
0.011919196835400402
0.04508230002403747
-0.03155246621013983
0.04718042811107729
-0.029155168874943946
-0.03861693150929895
0.08924771440033599
0.06937072164127
-0.05603388089423409
0.01027299747397167
0.01776087221740522
-0.026199449097606603
0.028750311443797052
-0.06096811888643316
-0.00602931730881065
0.01867546257956434
-0.03046353072095456
-0.039594530527680624
0.022183749841770604
0.09359524623848475
0.0005801935133341438
0.015577056997091632
-0.02027736019592347
-0.013068668333700678
0.031242551623628878
-0.10908815371957506
-0.012318970108821645
0.043412628925914305
-0.026578859849242333
-0.0033425192296240853
0.07635715252838668
0.025025166174174357
0.021442811473281777
0.030263385135308657
-0.013414524287594133
0.061046256106463075
0.028111011058019233
-0.006749725124712393
-0.00101805516055288
-0.03362081479174974
-0.050255345269845646
0.02816751857877254
0.09704590583909174
0.02709385259621242
0.002880551350575994
-0.0839129205819875
-0.06880515712503908
-0.006599208080806817
-0.013328211810672015
0.07059318176825075
-0.004999916046369417
-0.08068276609494053
-0.0627992208980173
0.03482916343516045
-0.019075702988562537
0.06204447390623057
0.032886910963317986
-0.054230664439217785
-0.0759455969066517
0.048421934142584694
-0.025678651865260905
-0.13397470687907861
-0.042279312783416845
0.10457674421516697
0.02816923409398708
0.0810831738411955
-0.019694084163808818
0.04272443272238318
-0.0038131787928067603
-0.021182933306809495
0.07840542336451617
-0.031454356455805264
0.010740463091962919
-0.009069333437966978
0.010123224851805125
0.04516663099032364
0.04394169658795098
0.034936879603024475
-0.04636276966681902
-0.014416050246822265
-0.008873261259862235
-0.043714890973598826
0.15709656557023294
0.07785982426137783
-0.05662909307762161
0.03178433165094318
0.07723550698714302
-0.04924314043174786
-0.03612087815541526
0.038173977325835065
-0.036605820727949885
-0.08171642572536797
-0.05800076260412243
-0.09936939628253791
0.04897845853453467
-0.03664754033600569
-0.013363303008804062
0.010495121725241523
0.07650645213041345
0.022373160494163366
-0.1077197288030017
-0.07421739125517927
-0.013145568040380693
0.03449065314834406
-0.0864766124229771
0.0011853275251270346
0.004197707794048264
-0.05123626479582443
-0.036470322894434894
-0.006227669530801572
-0.015553328862713276
0.07121592185769025
0.10027055266798855
0.031321666245013244
-0.053485085419422776
0.05608721368850294
0.07124959638257826
0.06788754697886636
0.10872043842569666
-0.014036414965838892
-0.02122601340848916
0.019784233867592416
0.23175518796524766
-0.10610823305225024
-0.026510276907297133
-0.037562689232766934
0.15660994950068566
0.5368308187860307
0.9846451437780926
0.612942219382237
0.06285528710872304
-0.03393084709841363
0.11094185835701756
-0.050641282282942596
0.0873964140570369
-0.021706589072002912
-0.06002735933045357
0.011161300631990324
-0.023339237265408024
-0.019639163094833375
-0.054874400590692984
0.017066039728936666
0.0642188146369313
0.05326361376848557
0.07919285919582131
0.04878011577107097
-0.01820477628898538
0.10048227697887097
-0.06521640648177557
0.020612415790183143
-0.04418673576339652
-0.05343729742167574
-0.04917855253139303
-0.04543960118337491
0.08167711704934355
-0.044776536149452734
0.020108691349725698
0.01183196200740513
-0.0483549358414168
0.004937966921851217
1.1264129743162202e-05
0.009502049689363197
-0.006622688540684037
0.017890419167155353
-0.00350263721238515
0.022648124745390633
0.06545483034776677
0.012589025622712274
0.016604788602015853
0.0008769965180571257
-0.0242914938104739
0.06304333142320782
-0.08556314966432943
-0.05408411179077112
0.0034550758916973563
0.016712192656235993
0.01840959362462811
0.014309186235358862
0.01856480051698493
0.05051960467960642
0.038372880773212575
-0.006031411827207934
-0.07435730351402076
-0.03079232430765629
0.030291139247161702
0.007432350455708076
-0.016742148286436703
0.0029869211550742937
-0.06985666701758673
-0.050049414369421785
-0.0026888408629185618
0.04040488270522322
-0.005133171634541138
0.0004815607854469282
-0.00155609885976916
-0.0318293936926887
0.0640329907935329
0.05526247021421134
0.043516020737415985
-0.04437889494432393
0.043639407084400166
0.09231096608481752
-0.0700695019007058
-0.01616553225809582
0.050837057579496074
0.029053764719280513
0.027118323233598862
-0.010056623873251156
0.07719898727764091
0.021977260061958312
-0.05343918084722541
-0.012409520183128684
0.01870724923811159
0.010950145000408256
0.051284539211232355
0.004487269164762345
-0.009315290732519743
-0.09343102211134438
0.009821443458633042
0.016964807937078896
0.10916680879193062
0.05691495907447694
0.04328980897663485
0.04348324079145048
-0.07131095542395936
-0.04883817450301263
0.04424690723948399
-0.004681868569075189
0.04394948649489874
-0.030604487580373596
0.0004336248178258794
-0.031948888456288814
-0.11461548663393357
-0.02732639237691722
0.03572802212891584
0.033001821900487824
0.0323115422812979
0.09000862960152875
0.03911511277309221
-0.06858367871292231
0.008095457521249598
0.014549636738600023
-0.03141628817614394
-0.028862183561495516
0.006847371807909493
0.006405313448790865
-0.0018596905364403214
-0.011653354943718722
0.005605462835442784
0.05763865732320633
0.010307255235162504
-0.035380487864545666
0.1000235552569285
-0.005665652745677579
-0.020422221361159412
0.04831754670262788
-0.012899388847450092
-0.010202080721742368
-0.027353067896965802
0.0470160952685957
-0.06564752085769684
-0.004628637699213622
0.06369596452737883
0.0648149596306058
0.01965767998722312
-0.036034472361282315
0.010131169475889646
-0.12260216384045118
0.020427926301916418
0.05301790180301485
0.09036852793074517
-0.04746389227423394
-0.02052824131500891
-0.008463221001724447
-0.0045059424411615185
0.03441540480217555
0.047130698535538224
0.11678950641867401
0.004213983245722442
0.01981360238446256
0.051519366783913084
0.03922000021793513
-0.053803091736107804
0.0601142536569266
0.07160482619923872
0.02299030823642232
0.004563742796413869
0.05998123399532656
-0.03395916945514282
-0.02330361784866709
-0.09187043253137023
-0.04568153595518084
0.016520309965105822
0.04534654643517117
-0.012285977671935545
0.019216813653706973
-0.028188496179407975
-0.033541532854961906
0.05798480973195396
-0.03389572173785245
0.06337317672062841
0.03250694849561553
0.01122464763728985
-0.021555942937553762
0.050912530262800876
0.03251315592389927
-0.07482126807474837
0.016011259740965178
-0.06553575283783557
-0.01452207690504008
-0.04803909656214116
-0.047013622598588906
-0.0018318792642378085
-0.06167738509875016
0.0688541476413713
0.08950820114706005
0.08932782010960064
-0.02288473960391705
0.009752271482270994
0.00945196453883221
-0.024951131033477146
-0.10850856612141545
0.06494391532046162
0.017276859252885805
-0.011570519762585229
-0.032671726519972376
-0.11774005165314481
-0.02034606617358611
0.2013488270170094
0.49756941671189797
1.0588005498487045
0.5594563538085097
0.10281466707823325
0.02058513839099771
-0.00020138625134486087
0.028428172327619766
0.026418512820750313
0.027891917547529666
0.018975177349509948
-0.001180505638312182
-0.05735488368642582
-0.004462140336013361
0.015285635463022848
0.07903695380523693
0.042150811318790435
0.04082208761358
-0.012559054085570093
-0.05595447842623981
-0.006018676994393485
0.06297708323787327
-0.03881868720773168
0.06080398426960032
-0.006407442797109234
-0.02045142156963913
-0.09084890999401052
-0.0066902555352740525
-0.0820595730955957
0.01165430990238965
-0.00814704707362755
-0.06829113431726906
0.0176778203514448
-0.009093114034688187
0.017696015214219356
-0.06757045553252712
0.03385827908789298
-0.011088347641285445
-0.003324084741895387
-0.06560255796069257
-0.12611144415865366
0.037293787213865524
-0.07271499900973692
0.025419507124045962
-0.016701544420185118
0.059069315590135445
0.01456748618759319
-0.009233901862357152
-0.01017915032066732
-0.05583641914033582
-0.027432477998341448
-0.0320177143213726
-0.0005456693328790454
-0.07441599036907824
0.003354351641418176
0.016075054009245582
0.08816119996481474
0.06802449211139681
-0.027359003436808662
-0.031774101858644564
-0.013714343579185134
-0.024357294998906966
0.08990831672689287
-0.000359548902887086
0.043234800901285064
-0.00403037039720596
-0.07580079030875904
-0.0259003921975005
0.00013833668754233727
0.04887145518563913
0.029666492943357676
-0.09534053744842891
0.009445389606673297
-0.012042849900552058
0.007425870715100718
-0.10276288477222761
-0.013321201039006157
-0.14486953895754262
-0.01336345123075451
-0.005357435647298957
0.0048117201458431754
0.0032853343238910602
-0.034735501624417776
-0.07568035198378595
-0.04392656176794394
0.01959594082897643
-0.02803464587495242
0.027320679464420013
0.04934756280174714
-0.05261695426384805
-0.08909501883638042
0.08400851179564388
-0.0075466661258922684
0.0845064523627255
0.10506976557087605
0.04331458374213752
0.00785568394276903
-0.0995827056244159
0.00831355494211241
-0.03331698123888344
-0.030843225140104204
0.028858610086485072
-0.03500125582127799
-0.0576442336579173
-0.009579616657037342
0.0045352306201229394
0.08737100614143284
0.03290112913673946
0.023192572756627842
-0.006402820452521479
-0.06422485653582498
-0.044719263279514296
-0.0157198301468232
0.03823555094084519
-0.12566547579207732
-0.025850109159969333
-0.04023944335429075
0.032198946986590087
0.014244022930891815
-0.033887977184017086
-0.01747398034040839
0.026957687960895472
0.012035741555466266
0.06416946950133223
0.05333162202343931
-0.0991009133715268
-0.014196993034619666
0.02714160890420619
0.07109965875263602
-0.021641570458823412
0.03304472302900898
-0.1282501304366708
-0.013174465057593879
0.08518248831811505
-0.029908778477016354
0.03546419250860388
0.016149759268659667
0.08520269080992016
-0.018887787429655654
-0.06801099035443121
-0.01398918397167715
-0.017256890839915717
-0.03161697140225508
0.04222326081773108
-0.016690159379465563
0.036749171390759304
-0.0037372121494735756
0.056054344575567364
0.0003205298364937447
-0.03411959871297699
0.03260187194286682
0.027292646762183626
-0.0637386813527132
0.07183249241283111
0.02955312893798753
0.06862937226206968
-0.0729064722571001
-0.006660979134963849
0.08650695180438436
-0.04679923045564631
0.01976342874293442
0.05299808586210485
-0.06202277587621448
0.05230227719812211
0.035972915703017236
-0.03438504583807966
0.08136363302286197
-0.00021737205868836872
-0.0023503819912538138
0.04497743059380857
0.03784851544951707
-0.07716299938022501
-0.037022066838189066
-0.02894007625282584
-0.03000592400001455
0.0034006557380980105
0.0013186074977122244
0.06941277643120607
-0.11522164728078413
-0.00633380693499663
0.1003323684336263
0.0535050534167865
0.11304808260397457
0.028378608432810627
0.016625318811824517
-0.058696684243536135
0.00635496827818161
0.04379030835322417
0.08009353065826089
-0.015877227081273478
0.007320084446449439
-0.0030070201998577354
0.06103917726384897
-0.058350363928592
0.004100128829488018
-0.06732005252454547
-0.04154379779570856
-0.023977967656679477
0.0274144125128312
0.0035546290650876828
-0.031867157561494344
0.09494412404700896
0.45068762807183443
0.9955622002624022
0.488758909618407
0.14092034471931045
-0.06611666111376416
-0.040833979936147034
-0.06266953763713214
-0.044154695831355145
-0.034629661004848135
0.015298828335312282
-0.08365018364659116
-0.014374057489812245
0.06299869983931423
-0.08332085427519305
-0.08653369952010584
-0.11808639894412197
-0.044279045528623565
-0.04906969928561122
0.0914028717710036
0.02364193216166919
-0.07231242992800933
0.04053245818697459
0.010611977281582878
0.030946897170290866
0.030459846678202354
-5.970088547895416e-05
0.06492523215159265
-0.069674111915984
0.07816234774719424
-0.022456548376513865
-0.0038404270474991773
0.021675494571244486
-0.04667787328046303
-0.08847365479342124
0.08636169230976876
0.11589906485590347
0.007958811075431293
0.03507744677843382
0.004332859465878526
-0.02869184782718281
0.035348473938052266
0.005966489625572847
-0.024238067607468425
0.01700300371358612
0.09483679677128824
-0.09376359898391541
0.036907415990628877
0.03602571224791536
0.03383893296446071
-0.031124278771432007
0.005319782949944511
-0.0020612352187703363
0.011639603237319178
-0.023049188367220638
-0.009694776114254027
-0.050093751030612546
0.0158582455896541
0.020399156648909775
0.04999028101072613
0.07816734202939317
-0.06255250205660931
0.030570212806844674
-0.00991172181821369
0.055834577767116235
-0.06187478193737074
0.013991733545290461
0.011819238200702837
-0.003501899080460252
-0.02345322104013433
0.0096812715648988
-0.03299476009656173
-0.017311631562215764
0.03959596494092917
-0.024542448369200776
-0.0869155360238753
0.0418674090743182
0.06132326966822913
-0.022191299241798426
-0.03760552827473045
-0.010547027528392683
-0.004762516929357688
0.06296009577699123
-0.032135958695318406
0.049208306732503766
0.07145220971782604
-0.015772264330125296
0.02489608002934962
-0.06526026749086353
0.002129540436986774
0.0010937001693943115
-0.05927715915786089
-0.07628677356195969
-0.02318236945484821
0.07172610751462354
-0.024953971014714853
0.0004571473485856087
0.04330840394491753
-0.00034410123657289504
-0.04679640761833568
0.10587098843323205
0.02209067196788829
0.0572336341595454
-0.03129215901046533
0.02822122304147609
-0.025004333336788465
-0.008442417911524948
-0.017872410327409907
0.09054077809870904
-0.011573934277722981
0.036160767755911274
-0.02272596983616339
0.017983608383331837
-0.09888247986533209
0.08495888527470424
0.010534295166430022
-0.027253634618791284
-0.019826450376542626
0.08419282833092741
-0.06658584952456942
0.10361470003136093
-0.039951521035195066
-0.10236502139746367
0.009318179989610506
0.017453150270179334
0.10220941564143429
0.047139421284477206
-0.06019325828002529
0.10422820671897029
0.030783661178200767
-0.011228200674315353
-0.01451056442978746
-0.06217034034089319
-0.06831234673410984
-0.0405039537847762
0.08405272114351676
0.05578772384160191
-0.027390404614290088
-0.01634219620702905
0.02232514635123264
-0.04676785922412807
-0.15850442872158355
0.04584238802383982
-0.0417656495089298
-0.09604146445377283
0.00260591452932846
0.07511057816401628
0.014188428111533136
-0.019329639253568974
-0.0028816505500469537
0.03042670111846283
0.02638698063630608
0.06295401463896902
-0.00813188578603486
-0.05059777483346805
-0.1100039850631197
-0.029389275186173465
-0.016972139025101734
-0.05485273142903601
0.03505272974806432
-0.015236932935548196
0.05371644462817994
0.013490513717924514
0.07757582489120052
0.05974368310674943
-0.06146252200918485
0.04997323212160837
-0.0136057163663458
0.03467028523455863
-0.0019700016436054696
0.019927645879071754
-0.014776492017095095
0.04508251645120923
6.861434543315562e-05
0.08137412380710757
-0.08191203332137212
0.004074647552778698
0.06803971974584401
-0.04666451517247626
0.0047794530684376856
-0.04246434327336704
-0.022266084700198516
-0.06016699141600586
-0.022048442172025784
0.06564145805584277
-0.047716853123760346
-0.014082419959839982
0.09800777787540292
0.08441386213681941
-0.01009957064666415
0.006893409737315819
-0.0044141573831866085
0.014960244172929927
0.05430373239684845
-0.03752358891068271
0.02091122854890114
0.01387036703865518
-0.015023368618907696
-0.014417717824909613
-0.0068034301941407695
-0.006276237901182135
0.007371869864693029
-0.07740931270477137
-0.05299551298544959
-0.009820588785199211
0.013258070959179916
0.039260867738137806
-0.08548079107514524
-0.03594229393287682
-0.0009979622333089013
0.09351543881780257
0.007056163467472353
-0.023142936545733114
-0.029482753660703416
0.1431340453295701
0.48133610192359977
0.972934791435776
0.5154430697674423
0.16239658728625062
0.07287402493246169
0.00986009874541617
0.008962991370141477
-0.014563333100548838
0.09841610597705897
0.022440219682403922
-0.0029321687506290843
-0.054654788321193776
0.018047305645712566
-0.043943078573389444
-0.03905366601067363
0.08224825296782999
0.03391007602650978
0.05279491175679603
-0.01076090664829571
0.03271931831375944
0.028000628827495835
0.012327709797597557
-0.04889351294847091
-0.011635077208679356
-0.006377495741833688
-0.0040532625813700365
-0.027723982341839662
0.007614249036889416
0.060915890351589654
0.014803429072150195
-0.024029004801968536
-0.08940461199328664
0.04612927358531336
0.06993233608862516
0.0324348944754512
0.029259146034531305
-0.06425682769066583
0.08221153624751892
0.05988217106223094
0.008542184876681047
-0.03302032355815442
-0.09567747404816254
0.03335944946665792
0.03440615270847254
0.016670575903081113
-0.11899750296854926
0.02762531541416012
0.05035060024855368
-0.014435790708224159
0.016215465711914744
-0.022140706465501384
-0.03052071008456112
-0.02206181283604668
-0.0022540934195221436
-0.011066964942202297
0.015154432385545766
0.01522742311232301
0.004302390895940542
-0.025502264450220594
-0.037327022393482165
-0.027366177112768876
0.01231864258878073
-0.010244170932708543
-0.07374839102809128
-0.02178532267514484
0.05221428907328512
0.01014920809120961
-0.018526209266631854
0.00021384622274125332
0.025414324100980885
0.022921372692990175
0.031582663719155475
0.01408093480227715
0.028358895814771874
0.037170697786186306
0.0035300549781551306
-0.045259992187412446
0.0882239718297587
0.007531426152361408
-0.006567749775966721
-0.07380724905179784
-0.020356237332068955
-0.041092346197358805
-0.12599071426556532
-0.01710408921850118
-0.0527100355548522
0.01985471724111545
0.11457076431814524
-0.04815866886195182
0.055302524237862076
0.0032903258786867854
-0.01709081210113351
-0.055555807342541556
-0.0808521054406878
0.027861026538753993
-0.0579558446911923
0.004962684044318935
-0.050281588021218605
-0.02524165646801929
-0.08394243765188675
0.04201709853686872
0.026688960118978273
-0.01947176953125963
-0.05527987466810883
0.01996485027791718
-0.05015227356422119
0.029793267265137438
0.03389653934879349
-0.07957435772841402
-0.06840088047510982
0.03866209474289939
0.11243599814370485
0.034768785112137386
0.015825807934221104
0.022681660818540263
0.0035930237138124196
-0.02782335056488243
0.0882371228655909
0.030132488416924987
0.0008202341366192353
0.006302325019641623
-0.012769264368884634
0.08069629000096812
-0.09048491163379771
-0.02007460035610187
-0.0970835767999303
-0.06339627013617442
-0.009740255424677654
-0.03690295715582564
-0.07627242783070513
0.035338604840164704
-0.036198573120118406
-0.02361135400204976
-0.09635791533014372
-0.03039742123280296
-0.04900598219137012
0.014173041643879815
-0.0776937645207933
0.0409199424551707
0.022321864865125458
-0.018282023032976793
0.051567519023341536
0.07673099541719004
0.0384627069020555
0.00984064351832723
0.04386196050268912
-0.004467242087291828
-0.015269747925050536
6.096205509448376e-05
-0.11127500323736644
-0.025379555042578907
-0.02682883016490663
0.004739044918949185
-0.001678053484293431
-0.062303656741973704
0.0293764098650859
0.010220198815834925
0.035356475196613446
0.09955473963831657
0.03362300845402162
-0.029051998932917013
-0.0006360412496329276
-0.030172521201896348
0.0025781569514537056
-0.006552180498060445
-0.054065245355503846
0.032330380222613385
0.11145369278497866
-0.0773464390559378
-0.012134999782319605
0.030599196509115995
0.09746582494684985
0.021068907811705746
0.05267045567440285
0.004386290152645968
-0.04235866937415755
0.019678577264475937
-0.0376373732789996
0.03716811032167083
0.019124238951431227
7.72539427425474e-05
-0.02221503475057804
-0.05762571483749417
-0.13850373929450652
-0.007996207189242929
-0.07586087669244794
0.009429450183594933
0.029652117307527454
0.016701398758814483
-0.09640901289191944
-0.00010011297766423418
-0.09187722427973076
-0.05543823481039835
-0.03712665179022599
0.028752165258933177
0.09688592641020123
0.060455125134928095
0.011452666795418426
-0.029207428188748854
0.00771440511439096
-0.03637285690109626
0.12901037952872937
0.5575278931017073
0.9571341255417826
0.5268082333634186
0.07688135526410261
-0.04804469045644669
0.000428457511845756
-0.03971483151909702
0.03478236887767287
-0.06541548307805818
-0.04291901307566507
0.012621658797751241
0.09974910637430179
-0.004247791836316909
-0.0056910307899124485
0.00973326843818526
0.02980520979105449
0.004660606259237279
-0.03539017441015418
-0.021780002517416623
-0.02991837119832379
0.0006613383674762247
0.03419556265449415
-0.024689521637301783
0.009444913317320931
-0.030365845393850784
0.001623819703280984
-0.046505771334530877
-0.019400892223984213
0.043767535386093015
-0.031978651516949994
0.0016299366333622457
-0.025876936445065363
0.008732036773338036
-0.000664979896881977
0.055587701284829996
-0.07192131790690875
0.0062602282947661035
-0.03986806481672492
-0.06404230176561096
0.05853489628156775
-0.01947663811360283
-0.0276751916819166
-0.06091920591048146
0.00780911835915084
0.02623390396036043
0.09266085720038528
-0.015831494320045613
0.10811879204635744
-0.050890467302105204
0.03853215857110587
-0.015966720019465346
-0.02546888201252864
0.0765673080694182
-0.04920058870985913
0.027326643246148103
0.01730095954680336
-0.008436429396814044
-0.04650667645090345
-0.025874326010472223
-0.10040332108075495
-0.05605878841112724
0.049983807875752885
0.02280423970420123
-0.08404923710419793
-0.12372524378896009
-0.04098316058342644
0.025429683086313343
-0.03139529069176607
0.0024014069439704396
-0.022938273713479083
0.027615626931077632
-0.048013246619045186
-0.018657352786397696
-0.031325929756557555
-0.03864425881617139
0.047464781222527876
0.0512272004597401
-0.045377803232088045
-0.0411953292386658
0.09162533472456924
-0.08100064285837079
0.09896217560956948
-0.0636816510214131
0.007141057714085327
0.007695109478158044
0.0035534075662409016
-0.12988294694860905
0.006948819813353008
0.018118889048267705
0.042897519022454776
0.03278322340594385
-0.0734933342662045
0.03895311520995184
-0.044279073109603204
-0.0710460623105838
0.0014131576516375876
-0.0619797673949703
-0.04285474995441013
0.052519509499928
0.03319745483793834
-0.011506991067966247
-0.017216823497340775
0.031372033632512716
-0.07686555398507294
0.016988421696922346
0.11698935871977574
0.05049279052765043
0.012926050535125834
-0.031854383921015465
0.0037323264663409136
0.045210923692414196
-0.025915260672192686
-0.00714142202769388
-0.08905179544040512
-0.014242675465948108
-0.04741104946474553
-0.04420789964863878
-0.08399606437842642
-0.03508485239088795
-0.0636365286844278
0.01716055233025666
-0.036026146251796974
-0.11554228540015794
-2.1174299578169174e-05
-0.048644249744560136
0.08879319275944993
0.03754951505326017
-0.0005874925107215568
-0.05217056796484855
-0.060854754774910175
-0.0348344758935076
-0.10747986253473768
0.04402040677333716
0.0517630678429749
0.006400203706066203
0.00023713111692845795
0.02545602251034349
-0.053310074600476036
-0.039132542626969566
-0.07258610672266481
-0.04982086417289707
-0.07684942009240268
-0.009078617222647136
-0.0037829270198487587
-0.04221816945080012
-0.016626491286263558
-0.023581537752199636
-0.0352619738716272
0.0646324521574001
-0.05584273912388166
0.0004003663456655359
-0.06957210478662905
0.05821294212349887
0.05569738469385919
-0.018594817275472613
-0.04207422089921606
0.013355287583578663
-0.07374610053860911
0.09600227179786495
0.06519274574562162
-0.007974256108006011
-0.046896293099527114
0.0005846623438622376
-0.04745796832983675
-0.004583964610312992
0.0057877889462989275
-0.014072936856662638
-0.02098685799986814
0.11769236709321643
0.012290631571516693
0.06782632893501682
0.04958976124272645
-0.0064803067317625715
0.009282430224538132
0.04197067338385324
-0.031167297172389127
-0.053463665397766806
-0.037689218449569434
-0.007432853447088404
-0.029317943981852897
-0.0968088885846657
0.039758071778015415
0.11081301659323409
-0.0938604859816276
-0.04071197412073523
0.11722538706449792
-0.05319987170063396
-0.049205967032700484
0.07494423422136046
0.03844907840002699
0.08996219087516183
-0.024645314671240218
0.012235031375921237
0.012777946495175592
0.06237628585604754
-0.012850437951370926
-0.0009214304971888031
-0.013392895478408641
-0.016661218034372267
0.003556708640265634
-0.015907204390378318
0.1960438045194154
0.560773302744645
1.0495179993653938
0.43372838694528576
0.08426961010751391
0.04619025448257591
-0.004278632643654545
0.08020619744803921
-0.0348765987424164
0.05249736473264182
-0.021675935975043262
-0.07326735383753484
-0.0768480399907288
-0.05096836200124386
-0.0458983888576605
0.01961993517026231
-0.027442934274345767
0.03695595312873401
0.06826326139920781
0.01703532037558986
0.013732520442435068
-0.04918067718084128
-0.03592249426771393
-0.030495181117498285
0.05994567159613549
0.04549241751610965
0.04840164393040141
-0.08417559074453203
0.022555602501553085
0.019393526171105974
0.06819000262010472
0.01737871838161449
-0.03291732281138856
-0.017793901766445446
-0.05694573307225873
-0.03308422017782715
-0.015928229837800983
-0.013190258359516685
-0.0015235450333394515
-0.008548758561824663
-0.03899577598075592
0.022102140784573662
0.08865587093931827
0.08214394770915186
0.08087642616447102
-0.006833262973880557
-0.053308896777984116
-0.03214955983264369
0.04033023664164943
-0.012539610906684066
0.033828990890973604
0.0522960867650824
0.008526330851092034
-0.023029845540982002
-0.014294439432796725
0.042688631817350775
-0.010877080723059478
-0.008477641180296386
-0.06367561021239165
-0.02632625918959325
0.10672275191813525
-0.04634555505381294
-0.031412346929653646
-0.010966937392859396
-0.004917834846283442
-0.054846835547632915
-0.016135013105003346
0.02759299956697079
0.023813389505498786
-0.007980794247006024
-0.08002229824495463
-0.002230584229403778
-0.015571929441342974
0.10944972093764352
-0.03894801863348444
-0.04285442108918222
0.021680534249176237
0.014471222962887593
-0.0584895212133508
-0.032133053095923084
-0.01572755624804002
-0.08205846399045191
-0.08448530872882676
0.015730434128095782
0.002889344055080456
-0.08825559665053292
-0.04092963330420459
-0.07029283075005438
0.04206115382145373
-0.040569844683740905
-0.05101403407167693
0.05508119533611429
0.06019171009072205
0.01288821996877487
0.027382227768663128
-0.06041099694225897
-0.0723336335104061
-0.029776983005838767
-0.031157127379672675
0.09042807355376349
-0.016205060439091118
-0.0034198355507122895
-0.0221466439316447
0.04810569123401772
-0.030100810546801245
-0.04687969905768577
-0.06124995255398
-0.07072498004156691
-0.022806638257446492
0.032778417705271144
-0.023040773982018523
0.0027332033176285216
-0.023978960951750776
0.014223629547443647
-0.09386199388928526
-0.04514517874165183
0.05262322911063653
0.009069218419275028
-0.1111157564747794
0.09193358840106064
-0.022286854062226847
-0.08498033198863322
-0.03471715928252713
-0.019018946282357473
0.030367128297028076
-0.10654643487814963
0.12733604979532884
-0.05911021086126278
0.013201573223732756
-0.0036431511308704506
0.009633147882132063
0.02177348690113902
0.033831618709307516
0.07469625885114643
0.0024222074120053808
-0.0002481139399065854
-0.038449622625893215
0.033177392621348764
0.0019412150436536229
0.09283920616780168
-0.08081939160732773
-0.052398011535036364
-0.02859270338678306
0.10726504339651416
0.019312321381001384
0.08760692369974057
0.010264354192854357
0.07028008141535819
-0.08359400554185537
0.005286725291908317
-0.009288449382447057
0.049339546848852146
0.014051624188806476
-0.07778059076364759
-0.008113608505902144
0.05080082576301154
-0.05118798568369179
-0.06984827205587978
0.04327942719107844
-0.06140266628974714
-0.07762199919528696
0.06709583131744078
-0.01910652370666464
-0.10647340566480892
0.0456622644011198
0.041854085136667205
-0.1068633312771336
-0.05740636999341353
-0.04330364958496478
0.053336901484659
-0.02417415829660183
0.04060262512770384
0.020158423721390678
0.08487309137937263
0.020141931878353204
0.03480756058031297
0.15597441933973716
0.007263824373918648
0.019383488655073885
0.039236788149665885
-0.01444629128025659
-0.0036667673047839286
-0.023314405641535897
-0.0962158794825845
0.07896297226648366
0.0026912891764997032
0.010536836958454655
-0.01363894421644408
-0.02553080554929247
-0.08515058802160835
-0.007005229757215918
-0.008680395902334307
0.004878664882619347
-0.00922980740663498
-0.03571147570748863
-0.11140080956193749
-0.052066011792723355
0.06011305048841919
-0.01794081543697271
0.012869604646948633
-0.09692908986796155
0.003755165623570887
0.013041610957886593
0.009227114799680053
0.024407545199687724
-0.0009631444470809671
-0.04567047512980815
0.06482028276903357
0.04572821905198918
0.029655767620564762
0.0015824719058558326
0.034269476531029554
-0.04862552911055815
0.0716712906202081
-0.01745318318853766
-0.02493255509310621
-0.03363066832827263
0.06709517586960374
0.01544261570293164
-0.09436824968651836
-0.040313843361336414
0.10079074468285651
0.5415518415441075
0.9495766169562346
0.6728710930105533
0.0553955752557842
0.05326338457589665
0.0038355912183497274
0.021822371707362346
0.08325275854009534
-0.025093731633405114
0.018720716784894773
-0.015972048156279346
-0.009590132643458841
0.02896374834646009
0.013517831829266684
-0.020067296392026486
0.013028542820332415
0.0192976647316596
-0.012299356931532439
0.07469745355622578
-0.04036742262801137
0.019605912092552275
-0.0341631367588665
0.05970192571594799
-0.07056032479512835
0.019474600251417673
-0.050373540079756446
-0.08404718004971752
-0.020377559942283935
-0.09140137353526452
0.018699963460726787
0.0646583499792572
0.06822013812898015
0.03766642295630202
-0.03946576805240008
0.015521130482952242
0.020767099095744864
0.0639855098169792
-0.0482554810057186
0.023422313562821113
-0.025458200718165205
-0.05860356533143707
0.026056047594940315
0.07305305297098912
0.019279854745842765
0.030280639024242925
-0.11148381649632205
-0.0003528591781313351
0.0598034244153805
-0.11667790567220793
0.01701809087985563
-0.007737788771828837
0.06392584132475504
0.020937716832364346
0.020553002343069775
-0.05525534394372455
-0.08405622203916245
-0.07864142064129154
0.09920185187802293
-0.009625069235978707
-0.030450101650627927
0.04092555177134605
-0.1076052077145112
0.06735078545215324
0.015101548798823276
-0.01499353769497443
0.06680961488045176
-0.04877261004280943
-0.028314188666582026
0.008281730233963098
0.1129389668529242
0.05134012629737886
0.00013866076385049596
-0.10393145124916481
0.028138175309267585
0.002157811165315137
0.03592823309677756
-0.05321405572090433
0.00997856290233421
-0.021295100003726114
0.005923447869416236
0.03407306786814432
0.054915135654332974
-0.010847149468991499
0.003420904474739311
0.07284338902693586
-0.015201010154031504
-0.03106987962922746
0.05609923380072965
-0.020474564198625287
-0.043017259185825364
0.027869896385267184
0.024442990181075194
-0.00892723312249024
0.010886132446892823
-0.08145553650037111
-0.07948735519306943
0.027337592362487975
0.01979195991962528
0.0381289257093081
-0.03741088517523366
0.03742580854732594
-0.028634422992891446
0.00698219064319269
0.0272343920318224
-0.036055933848226994
0.05884361442306854
0.05950575345874712
0.00033765853861156703
0.06137262392006684
0.051288761387019655
0.02804603355926641
0.009696079225017763
-0.01715797593120146
-0.029614092622673234
0.029066742240809934
-0.027465936359368743
-0.0035088450202980133
0.005708639646302052
0.04097974408257929
-0.047255576816610065
0.06110744252524271
0.03974947312822073
-0.061264251313027124
0.011036924499498495
-0.05352217052722298
-0.10261566570449257
0.003361356772189279
0.11272241479760903
0.10023323513588236
-0.026913597529880803
-0.016642817435978667
-0.027186172023423494
0.05123525178824138
-0.08994784917553914
0.004500638823231833
0.0869914306873889
0.00027781935255426855
0.01664669368141613
-0.0072484595097979665
0.024315516754633868
-0.03586618010187422
-0.014194632126348375
0.02656090386318656
-0.003468984974139014
-0.06712927835940485
0.03366052227345061
0.06803193787361987
-0.028562311398006975
-0.048860034629777775
0.04174425807720969
0.05002910178803158
0.023527451025816097
0.0035038815348634603
0.012767739284877786
-0.06084430668498456
0.032466360234275606
0.00820612595590426
0.017049489062229535
0.00036839117029652333
-0.05087449794478528
-0.04893032126425817
-0.019987749043401726
0.075138218400436
0.03206907628963899
0.026899921995688116
0.01804645854754416
-0.021564883991856534
-0.10352408382815881
-0.019465997972930332
0.07193084507741049
-0.04281046765241315
-0.009033401979159968
0.023130433714102325
-0.051943180134172054
-0.005290979762654673
0.04563158467763794
0.05114773250656473
0.04846335034244405
-0.05980275335504971
0.04560116384894947
0.008215755257068972
0.00497382558894753
-0.03427433019946972
-0.032960452400146334
-0.017569433802156195
0.0003250359979950787
-0.004757489007712955
-0.009327059329750628
0.01899257539505549
-0.0041038561442709965
0.057372082655396554
-0.008492784978511034
0.02892570718043761
-0.05042250580804213
0.040041571432778825
0.04684002164203646
-0.13504355729649617
0.06673064381414255
-0.028827247234256434
0.06596356973262939
0.055375847064564776
0.09571720999477318
0.10136419826724527
0.5359770516683519
1.0328089400494318
0.506826983571089
0.17657343611668364
0.08676003457661936
0.10643523775659863
-0.0034564676489615173
-0.0008373748024093461
0.09007164058717029
0.006064402177475551
0.06719844833575978
-0.01366215000610471
0.06512987621735424
-0.00010152433570450735
0.008002232527660113
0.05992363439832643
-0.011255115296123726
-0.05741745277808356
-0.020125040426364912
-0.0056534721122800825
-0.02345866141896817
0.019696206026152695
0.05312064100475601
0.002435672228233477
-0.0005707955430483649
0.07423597889730345
-0.009614097623885756
0.09766773045320903
0.002814701990921622
0.011912641372433848
0.008404961411299738
0.05802883034254202
-0.007452849426384703
-0.03914459494385128
0.06722761734569561
-0.034203252839029294
-0.033760084406752676
-0.001617576248074214
-0.03817645440514389
0.003577751413388572
0.0015411903860300148
-0.02065626319412143
-0.018269650184783656
0.005167634884021869
-0.04358862416865219
0.04358715350833714
0.012356974948285014
0.007257072025614153
0.02373006998163037
-0.014231560590309207
-0.05738603424098859
0.023426282372639204
-0.04820433347630378
-0.07245642845299169
-0.04177305414736205
-0.0007303901080033164
0.004426713471192963
0.05437392186535486
-0.00016848286920693843
-0.03145402502522761
0.025688956584488033
-0.054488211157431424
-0.025203818727710988
0.01869445386180624
0.07113833601782688
0.01825345601539781
-0.02058187610448559
-0.0651862825655602
0.03324791249161015
-0.007727901551282091
-0.11058966897292898
0.07390961158441622
-0.031095705606195442
-0.04581429030022303
-0.015764283457360615
0.07991488151752098
0.04461089242964814
-0.029615896949906396
0.0729422018231388
-0.007024813844608179
0.02037296210203186
0.04647445202331992
0.06712666775360564
0.045923361347677105
0.03098078465485035
-0.07304559465232231
0.03112046947683421
-0.0008247129671736907
-0.024252442995890515
0.027249557792364282
0.06578566342748515
0.0051677773711307235
-0.038090120446624326
-0.0885526799405907
0.012141860980608148
0.036108064682527655
-0.017630759797982804
-0.0224670643473244
-0.03895770203339323
0.020987982872941208
-0.10416998150774844
-0.012056297704847155
0.11997369227526725
-0.027980913338931376
0.00942593500348056
0.0579518909168836
-0.002861929537041114
-0.04413114475845867
-0.018379924724965965
-0.02815288132896905
-0.060834347600833796
-0.05209026462392951
-0.08175880417602002
0.042330721109016485
-0.02589228626993851
0.05220698780175259
0.0020633845629056237
-0.1350344133414226
-0.05998318398980034
0.05919955499239226
-0.0026439710233992185
-0.024757611567755057
0.00950230605160466
0.057748609558511334
-0.08050884015093314
0.04503541896484748
-0.04769283946524874
0.042233354400510376
-0.07237204044203274
0.0077618238118078555
0.040054275977558944
0.023922914404336512
-0.0692460142502087
0.03745344985636586
-0.0928209948485259
0.028128720280618438
0.020032480631067127
0.023681102099930514
-0.033653006963852664
-0.011807570441078176
-0.0027426417045546777
0.024914078132585563
0.048906361485827124
-0.021310593166082373
-0.050159330421335385
-0.0538366554503139
0.052518436920600736
-0.0762700273553076
0.039696532890109
0.015484792827642303
0.005916672506443284
-0.020488730758252607
0.062414916463951
-0.006426609756863897
-0.016758616581363333
0.013942784730814672
0.07877215090123868
0.046494726966785666
-0.008751878868259448
-0.049451748735500844
0.013513512322094263
-0.06642378317047397
-0.05354582077622371
-0.04562922930046723
0.045099885936567524
0.05269840940170453
0.014057351964115143
-0.003908750542811051
0.020173103471293124
0.015212451842004412
-0.05608304039234685
0.035643460083995895
-0.08410632692509191
0.0220758143754206
0.025187828873633012
-0.05191310164455424
-0.041450363152685576
0.02639343888353988
-0.019918937549611545
0.06820723641220962
0.014425080083320482
0.007602504909993261
-0.040348000173984364
-0.010357754372347767
-0.0188321469458894
0.0029590666618753143
-0.04064823473502285
0.042938890536376326
-0.0568144371606438
0.07203490637087995
0.051154248800868066
-0.084013506907
-0.044476924239311766
0.022726139660265394
0.040094457310282446
-0.0367005279763963
0.009350540472993735
0.01573707221414183
0.013440223913023706
-0.003472367193154281
-0.015897969941842425
-0.0008431157541875485
0.0907110136852818
0.004675819271835003
0.01188038418049998
-0.008669911913052136
0.4919858926040052
0.9553642118994727
0.5597057923256369
0.14816441160913857
-0.04328464226343285
-0.014544425095132544
0.07592026126694351
-0.01760386002898656
0.07013982693035992
-0.008780223319186124
-0.03233992355654318
0.04196086489036955
-0.050285928269585146
-0.08904310350071393
-0.004041372066350085
0.03620578488370154
-0.06799145560304508
-0.03003641424126531
0.009106755689284594
0.013962144595745879
-0.058464211441210584
0.035555307326491696
-0.002899382781785216
0.030947163627693033
-0.020153714954756104
0.029954412568227826
0.025736656468213492
-0.06823243021674928
0.052675082525901085
0.05758710080002978
-0.05197893435553374
-0.029941891199902156
0.09739502321048996
-0.07329206094422051
0.052538846236272245
0.03185579363694336
-0.09462211378544627
-0.04086910756181911
0.06571239419349272
0.013676267989576128
0.0061986960098235865
0.009754591602729255
-0.0556886867768417
-0.041366478114749444
0.045709777249697034
-0.015367607007349902
0.0386480343765877
-0.047385479675934414
0.05314563956456425
-0.009259151409525032
-0.055477417224237505
0.016022132358834592
-0.06648231860428387
-0.022012038464329278
-0.044490649796189385
0.039056302110862806
0.08004624920784642
-0.024769475006434435
0.055140780351666564
-0.05511260023949208
-0.04644176545724808
0.08483344122806497
-0.016144550473496756
0.03373467650750123
0.014005166914794271
-0.04242774234746549
-0.01726762250195733
-0.06638741480224225
0.02392288288002596
-0.019993877288207614
-0.0365655729550343
0.024224786103189108
-0.06531590903498398
0.03357174304519287
-0.0907978998062058
-0.017997141241029743
0.004169862285185505
-0.08532877209279852
-0.029883860990728917
0.040503135045756436
0.015950578597405268
0.08862199769252682
0.042688311352043255
0.02751838150439126
-0.03144787292889555
-0.015219114779184967
-0.04006826099391202
0.00713101192454049
0.0017102531572372637
0.03689200045514299
-0.059191161670876936
-0.06041077281549739
-0.0255595480438527
-0.05548762785907949
-0.039292670035582206
0.07976899125595893
0.016294013781457995
-0.03288825782877615
0.025191901238904198
0.008825199131324572
-0.01632562769182384
0.02715292753376211
-0.017072404531019908
0.05709106105418158
0.01211623198839778
-0.013382502614510242
-0.0055393961843648405
-0.06040204961357877
-0.022399265809401013
0.14538632451106334
-0.09645398298393792
-0.05622130312153202
-0.024665598440038156
-0.06715038262731901
0.010768233303820686
-0.03293280441416659
0.05048870421021656
-0.06684355218222841
0.010584455586343916
-0.04939635755596475
-0.03704978524860925
0.002543741879715726
-0.005135885032378779
-0.009495778953930391
-0.026431657091046112
-0.0735180891149263
0.02731650450993199
0.07872542427507638
-0.03899483174840471
-0.0062655905773652786
-0.011067864039040186
-0.026891666150897636
-0.0737056327063329
-0.06897896206223078
0.12065408012359591
-0.020951655491374396
0.04328351525752544
-0.07689890967856523
-0.12246911237084568
0.005448717135955119
-0.010000281834288909
-0.12241987312985281
0.05423691095777897
-0.06401631992331284
-0.063227902508254
-0.02047473622369913
0.10949201000314482
0.08229587704158053
0.025685333742836925
-0.04187853923007827
-0.03302364653261265
-0.08288696461838393
-0.007462927640164498
0.011915149745523866
-0.010784527867574775
-0.02843144958814514
-0.004679868995027942
0.027036366142070573
-0.013305537982145343
-0.004912109376746465
0.08539938984134787
-0.0074859277964484305
0.05532347447606959
0.03238026743185103
0.027864846753532308
0.03064152388665464
0.016581037672956232
-0.015074891738422703
-0.0002357065439139982
-0.004853635729253272
0.1005288100163396
0.06323575430099766
-0.03233940159365606
0.03342992833098692
-0.004885645480352803
-0.12557811103695848
0.016203438283759013
0.0722870150328424
-0.044163393591867654
0.015402779142514367
-0.02693755633999924
-0.038532941042155135
0.10657464161025493
-0.02745294850996956
-0.004237459558893145
-0.08642519612162002
-0.027542984905344844
0.05230808221192182
0.04178277970301673
-0.05050798928350128
-0.010667507233478049
0.015247038389917651
0.06590246355167743
0.01156024600040792
0.044825255562363386
-0.0018083436954438666
0.01162140651064461
0.009428030919533106
-0.03157262537584409
-0.01334931577898186
-0.0006866843594486475
-0.02488175030145664
0.0231837952858953
0.07590653748412644
0.03270806766106984
0.052825152825982616
0.08919472148326668
-0.0408167335109326
-0.04071173317879742
-0.1400167399196677
0.04952170397231712
0.009086540251726807
-0.018363823215974788
-0.10750155101694325
0.0603518727897536
-0.043829299554546224
0.07621493492908536
0.025911111402197897
0.10206109341611772
0.5729707107407422
1.006275788017274
0.4988215380576245
0.023481589546022946
-0.007780904511913879
-0.06543550538424252
-0.03708552339106506
0.013421037545956603
0.03844958671349983
0.04424797386168209
0.050257340072940054
0.0059462570652806775
0.03069639014583648
0.04296060964969339
0.07355713325326656
0.06313195574866991
-0.07971872399554045
0.005264918244998861
0.027933479984664042
0.02006657553344033
0.05888241861213888
0.004882967406199028
0.0929524795729467
0.04231475700704145
-0.012558477361142996
-0.058290220200877256
-0.020570932974017856
0.0726103284530177
0.09161744844878826
0.01590467486499917
-0.08272754595599541
0.011358700675199894
-0.015579801277724804
-0.08137855932909578
-0.07518492886562822
0.003974383997464938
0.1160687335316466
0.037064295541890474
0.00026732308796403333
0.05952871675535785
0.00913533758131809
0.006169712066765417
0.008126186877485186
0.09953756507834315
0.00677258291354357
0.06800684337188187
0.04458454909109097
0.021740862267120246
-0.009207316289773013
0.14548776145883596
0.023260165745678504
0.014095552064982336
-0.05505005135279914
0.001781330873947228
-0.07158292282434722
-0.027807321342017157
0.018085043091148847
0.06317300306984279
0.10248617843987745
0.02784852692983951
-0.06603194035806607
0.0417419882187014
0.06937955284210717
-0.0018347105964763373
-0.053961998277514626
-0.03313521084665514
-0.01692632904690448
-0.006353846612272936
0.009246704069542203
0.017270812348791166
-0.056253147191014
-0.027234422959978966
0.05607850680784026
0.021423922890011868
-0.006038957183501813
-0.10321415659833516
0.027888141883791375
0.0006400160724962281
0.01579343063463151
0.014492987328838093
0.07483122790174629
-0.011626110990236657
0.04702259230147171
0.017559514027471444
0.006970638085808562
-0.0499808386885808
-0.1000403335799063
0.01218051724275019
0.03601259083885934
0.027304833342390995
-0.05233968301890988
-0.09877016874791722
-0.058084662521496994
0.10002361655154286
0.03599171241094686
0.06061487762304255
-0.03008647759042074
0.023991458486309444
0.020938519684080902
-0.014869579642579164
-0.06111824893883932
-0.013837705509925422
0.0018996097233741406
-0.0001423598628371789
0.00510377670670644
-0.01879635593642719
-0.11394737253591941
0.027375202425281915
0.05409389220495312
-0.06496094158368193
0.02878419100665361
-0.03550263526022189
-0.0800377835075407
-0.017370459300064183
0.04499473370616883
-0.09094197855869324
-0.02354769678876939
0.05662681346223319
0.05429159541423587
-0.004385501194956566
0.030664737285081567
0.032624519926920274
-0.021474260331233
-0.0019875247044224393
0.0056989320019762086
0.04681689313999643
0.019190755229907284
0.005563904642225743
-0.0034373973893910984
-0.03937581457094483
-0.018806251007801065
0.016964911270059866
0.02040886188745781
-0.013502658243643582
0.014911890805023267
-0.051007348355382356
0.00912748858059135
0.0022793710168807755
-0.010289557227016185
0.0771288575725088
-0.00737585809837841
0.05147594617138386
-0.025397132438468598
-0.06134934172540753
0.010458681386062233
-0.055009260274215634
-0.01603841694826739
-0.06971465610830661
-0.00431673845749619
0.021897710649447285
0.022760379959377332
-0.014043042738741142
-0.05484403792795557
0.020299481113375692
-0.04901463521813826
0.01963798555338335
0.01036805939299107
-0.006574184871525394
0.0028557450814811203
0.08638937806336087
-0.02095793036543145
-0.07707725344741362
0.0445141385689729
-0.04550026467639313
-0.03716260468183567
-0.03689875202027447
-0.030789600967041877
0.0534354094697502
0.027919551679436206
-0.02438685324388139
0.03163585590571564
0.005723249995942749
0.08343260752805985
-0.1341010669200012
-0.032913643568630906
-0.019589132911467175
-0.026182042927215834
-0.0645182124360806
0.03098140637306749
-0.01629798530904695
0.08880662774815339
-0.03805498960921684
0.06483135843587669
-0.0012896473626042076
-0.03552556082068482
-0.03710310480477266
-0.03786647047755034
-0.03978081011338249
0.005491095103539883
-0.028479598836086563
-0.009973838317706252
-0.04412697242287
0.02571070429904984
0.05533880332642319
0.08872479506113365
0.021186006965606016
0.0703363097208821
-0.06431422254828673
-0.014995743161921711
-0.005496102811142516
-0.011378677059498883
0.026871379067211307
-0.012477392954616131
0.08136821672065025
-0.04976791874253754
-0.09255622875051642
0.06637942879843445
0.49459195525084576
1.0535200997571443
0.5087827540832565
0.18250019639219497
0.052277980229609416
0.04683969571897933
-0.03169634423377666
-0.06481491345996405
0.00593383168118206
-0.07470316444158198
-0.02371343719002967
-0.010209940779462497
0.07346193906634926
0.00299431746952703
-0.05471967556989287
0.0382646693482607
0.0020885511657882877
-0.041704112353536826
-0.007561602774116306
-0.007948841294772033
0.019889054087069896
0.030242821406662686
0.01956067444485351
-0.04313328859710339
-0.05979514701987915
0.024431081068651484
0.013407013885836205
0.028095101022565475
-0.03375221689060181
-0.025327973943194904
0.11563522750602356
-0.05512047155463421
0.029793625646793734
-0.0677067253802055
-0.05953943421602012
-0.04195663904930104
-0.004744568637571575
0.12640423073814175
-0.0383444863300693
-0.07043478660044587
0.014564014232584497
0.0373431063312731
-0.05738951879841852
0.08481058984032831
0.051047162228667835
0.03324656785538225
-0.057478833447498115
0.04824695931036558
0.038813457289221615
-0.0217016266984983
-0.10405298829107729
0.03996046735503173
0.01429893947627578
-0.03320917447888674
0.10959240270387505
-0.015827560554402525
-0.055954518374455836
-0.007965315281026609
0.01075323279502249
0.004512553782223904
-0.03791753585799237
0.006214567202423775
-0.07016720640673428
0.016623989749033615
0.04522109915772532
0.07452203945416894
-0.036620417088230155
-0.025467136122690866
0.050939687507286904
0.0004142730366666429
0.039121264331094696
-0.004949895179369694
-0.016276648341237043
0.013498971491166368
0.08131764770903448
-0.01831869398663122
0.020731139271040398
-0.041376861686302155
0.0700423427400282
0.04509584392528645
0.03453203440469602
0.01024492997925848
-0.04144539452734075
-0.06118209368765665
0.026337825811989277
0.036431348378218834
0.03524950855766437
-0.03791515394599146
-0.020523653524586516
-0.008950255211328497
-0.03954518191726972
-0.043458737408401116
0.04784398516897279
-0.024736963620336623
-0.07924479480204046
0.09746781242497742
-0.02789227575076374
0.06304346971269391
0.05014366626482465
-0.020314241644271484
-0.04188644410238951
-0.06345351402927572
-0.056006924776796
0.02645840385491027
0.022868387079887822
-0.06159656336653846
0.03489067992612549
-0.06792062188775695
-0.01798613005557806
-0.008238923962432306
-0.002560150253813445
-0.1416831670468575
-0.02807285356297325
0.07481725759574687
0.06261212468270065
-0.0017035784191356382
0.06096453136564665
0.05374961122644824
