ecg
-0.002932843626167317
0.052575542325947924
-0.06713938766489255
0.06285867722201932
-0.06294144751535756
-0.03576883930971246
-0.07786021338135726
0.07839446246761417
0.501972930867966
1.0194360881127964
0.42075482683229065
0.1252742696498171
0.00591701973852929
-0.043850887864264054
-0.02552603465070727
-0.004809980203487146
-0.06783231772954003
0.040786112228618936
0.02706819228785124
-0.0511170632483866
0.018838330930347244
-0.05929157210724609
-0.03773977940368599
-0.005564876379674183
0.07777685826413844
0.01101342545527944
0.008820883732484621
-0.01527438072398754
0.00014616438949986113
-0.058550129781167595
0.07286438156117005
-0.009140277013993635
-0.0815199560771383
0.04384849306784225
0.01890074822307749
0.04629268797583108
-0.03931917588398671
-0.061541382169805585
-0.054800524202818425
-0.009060673087588731
-0.09196908137784708
0.05333000647576386
-0.0378484610293837
0.05006076500454501
-0.006339571093347341
-0.04296054985945927
-0.0680304252536644
0.03261693384882641
-0.0011374186439219477
-0.0005778132649562012
-0.03687997492691007
0.009379685783804187
0.019790370179177202
-0.052363494691745394
-0.0157739877724955
-0.037626707915839754
-0.014712026332312271
0.07100835785342514
-0.020665828169723725
0.052000527957486456
0.018436382979233164
0.07692524276280004
0.047740534942528855
-0.07773798383251446
0.08389564082802071
-0.03270891936014619
-0.02467328903642358
0.04762849236404096
0.0013926580978278812
-0.0040755520352271195
0.06373963716503149
-0.03699410924363175
-0.007393052643165029
0.006088398215139198
0.010580082115033716
-0.08212026063457284
0.01203932558133407
0.009327356821978923
-0.0026014888945668536
0.06991886376022373
-0.004196476572112765
0.005312241146946763
0.017276438206303434
0.016922001534655222
0.0701586511581385
-0.08689399067770548
0.02017483262942476
0.011198069654156276
0.0677221645910496
0.03415901290041192
0.11322497798451597
0.029386228571153555
-0.0016946526122468396
0.03436166132472864
0.08297458995989515
-0.03902808173375604
0.06984836953847308
-0.0858761699937084
-0.0375175909631712
-0.0025441366326230414
0.0185394139807316
0.07673618821594408
0.04355004913869377
-0.003699461273506859
-0.05958243215081377
0.06231464026223961
-0.04713835290633116
-0.03663799386776377
-0.02547506038062799
0.013651410845323536
-0.03338068576022946
-0.002333173801503978
0.0034228786470060536
-0.02060535856578191
0.002344947079483086
0.029763929402332447
-0.05207405899241946
0.04585945864069067
-0.03497067054687725
-0.06822774390750871
-0.010659755791519706
0.030358116502269772
0.09085259896228778
0.0585019666338105
0.013002214353403289
0.01426627784391296
-0.002010665105553672
0.11838756658641827
0.0716660503053593
-0.06923845209087406
-0.014537313519422241
0.007515705468592735
-0.09421254329630678
-0.03870693003952682
-0.03383972120506158
-0.0576201429662708
-0.050486078148135896
-0.017527443712805017
-0.040415294495334445
-0.035675036685360983
-0.02860535646661949
0.039188371313157284
-0.06452499108546396
-0.05410574253234205
-0.005112788145870496
-0.03054947172366535
0.023459381888613073
-0.015746316028029138
0.06296071342259882
-0.04048503884462544
-0.03849158262083434
-0.0463394380921455
-0.030408680995454476
-0.029153213706976613
0.05195522056196949
-0.004308531449037211
0.03043296339014949
-0.0004756505447542806
-0.03345084554768369
0.01777599687244996
0.051415047701131214
0.05880494646917011
0.01963042325276077
0.003129205156680276
0.03367166250001183
0.011823915826917577
-0.02195945153847673
-0.031134111592189415
0.028142069040615864
-0.04754482162732174
0.032640286257321474
0.08284568543643306
0.03810972683791983
-0.004444831372491811
-0.024669832034326596
0.09166947873721248
0.0011743736660526298
-0.03994107892258102
0.03299531930901334
-0.009702423094441387
-0.0067238317137450435
-0.07745932883597076
0.07701874291771883
0.014878540011655603
-0.015087255585384849
0.009455108935910452
0.09038465483507413
0.03349105112116079
-0.02446095874031869
0.006094525942718806
0.17213228450053422
0.05795800917194005
0.12725014794201892
0.019442262033977864
-0.09567592329061234
0.026593208357462296
-0.04443762755553351
-0.055251510715765284
0.018647451045158674
-0.0344655270039939
0.08569952912403662
0.5442812176686622
1.0233529761109676
0.5739154424314312
0.15730569573332517
0.07359858447406332
-0.007119067309357272
0.023001421077768792
0.06496324016002558
0.0013277674448638772
-0.01189702602882739
-0.04631309769809237
0.03222203643833798
0.050913160492153824
-0.05611420094988945
-0.01418057927674147
-0.0342215959222691
-0.026919414907895525
-0.0069806126692336466
-0.02245009196664571
0.02366774915225499
-0.0496017071671456
-0.017092241898785093
-0.09397903325695087
0.04505926744545108
-0.031064792775568076
0.006892296047622758
0.03178186457084158
-0.03443202317953364
0.023108895599624618
0.03981306656096772
0.09514455085474005
0.029098544638149544
-0.06725980898383863
-0.032359837410355745
-0.06302812124451171
-0.05289574056935297
-0.09106874249138888
0.02267508686832506
0.03714925433576146
0.0369524849384387
0.04641740532367466
0.020697810367467637
0.026670840821362386
0.02637933465912644
-0.04260170029330751
-0.06633331815539492
0.03418789424588808
0.018789095441001543
0.14574829239655124
0.022523537235546797
0.049704180844072465
0.05218419034465102
-0.04093880914022298
-0.10038528566088706
0.06443424986164775
-0.014241561733794976
0.02791356956975843
0.05467201842937939
0.03758845334232119
0.015578003598145936
0.005494468960947342
0.08082257751839579
0.005521877269418086
0.02308781526697956
-0.015007007092195513
0.07828046616487377
-0.017978542765701194
-0.008175838683774046
0.0588804990137593
-0.06340511526871723
-0.059274661458428704
0.0044527621111674085
0.0021300353908136017
0.0034125245351859265
-0.014150447559543226
0.058500568354998866
0.07550245080050846
0.05663870429743435
-0.03834468138887831
0.06364267062154548
0.031967516531182495
0.01679669432082528
0.015407511708204284
0.1167189910842994
-0.09604444260742481
-0.06165736052254872
0.010015321050527007
0.029732145953579328
-0.10796718356315503
0.015403795131525356
-0.0031672190004180187
0.049164352500852215
0.06672128941868637
-0.15130537257119028
0.043688789594305555
-0.06564779284160116
-0.05104601879687302
-0.002693583877394062
-0.04729843540190774
-0.09463951645875625
0.022206379706289442
-0.09748073815159844
0.034326834231478
0.1066098283438885
0.05748346709452412
0.015532021686308437
0.05282651881536138
0.02406451408473109
-0.015800501266496077
-0.018810654614843804
0.01772602201332709
-0.03792970730405999
0.00992709998549685
-0.005382408434424498
-0.038190214237341716
0.02144807209822032
-0.035555661044747784
0.06760184655964395
0.0010017729803538371
0.006114271643908442
-0.029434495656671895
0.025010126597963298
0.01895734051452163
0.020717721628687426
0.0015715327371765319
-0.03802493295649689
-0.020557673864940625
-0.042850246689795854
0.10101165166389466
0.025473976885835414
0.017710299429530042
0.04502925675875268
0.018910946106368273
-0.02563208599229465
0.0027256861984984062
-0.01703839976256807
0.0422589108149245
-0.12284210373368527
0.003517838860187317
0.01596476191423505
0.011928094446769096
0.006529128357865878
0.01578417543567978
-0.034560044132438295
-0.0504897363938306
0.02601372671574917
0.021720852891239647
0.014913237352871532
0.05313846956852989
0.12171041401024163
0.0688350483118113
-0.01979370095040644
0.025712041096424915
-0.042848365308261825
-0.033198729364680615
-0.06313773848955291
-0.040797945447861486
0.0452074806632105
-0.03494348361449635
0.01368552517320165
-0.007155601908166169
-0.04826920235863663
0.0824798135761914
-0.0395366905226081
0.02952363645074124
-0.10078293247891745
0.06057686210202262
-0.07988026122012103
-0.007906086822767236
-0.016047393008312368
-0.05948751810483554
0.06613301733277561
-0.012220585574595327
-0.0021824190834144933
0.07064773848608652
0.010343450859897033
0.031704784059646836
-0.007030242006959521
0.0031155451177470733
0.05454065995838858
0.05653700155731716
-0.006306681836570113
-0.06193853743479413
0.016923734496836398
-0.0004636600704263292
-0.04617212506519111
0.02006851827855953
0.014297224732311953
0.07031568873599696
-0.08223344461112059
0.012044575044372645
-0.026199737457744038
-0.015632471742474518
0.014706570970238414
-0.01392047886240431
-0.046546408346466166
-0.09403187249231126
0.013948306820221634
-0.04397334577535841
0.08205382061943867
-0.01357795754402803
0.008105092724168225
0.0247087081890311
0.08107667483047562
-0.031475929281709496
0.07480377593623959
0.11573855266347238
-0.08177748505179053
-0.07554011918033576
0.06704839416188642
0.2662921649166765
0.5598028239727673
1.0675216195355965
0.46506734835342567
0.08506798304663626
0.0025804916535211685
0.016883977283383644
0.0021508968694852353
-0.12859452311289013
-0.03612358540024086
0.006168379159392539
-0.00278856826750628
-0.03657626380579442
-0.0058922370885684605
0.0016600847758349144
-0.014394452751225582
0.044662940683835785
-0.049193864817495436
0.017296283163459315
0.11476514582634843
0.016264598850160294
-0.04422062720797071
0.010092430434292017
0.0420107494595663
0.14239503703305317
-0.01833910618600519
-0.02239513768028356
0.05520738721604314
0.08817266720513942
0.03342956764560235
0.0661899516789607
-0.024172193717730304
-0.011484370938384695
0.057501669751470356
-0.005771269802522289
-0.04701022208393876
-0.041329985735355505
0.05968765659623746
0.05120245879847658
0.04019827034375248
0.01666418522628976
-0.06651539183789598
-0.028545121484712156
-0.05534820457635884
-0.0038165345989648334
0.00601007261717149
0.04017400545113167
0.08502932961187354
0.05895248715846563
0.011197263725405077
-0.004340325060755057
0.0010019704237786715
-0.10756222494508104
-0.019454116406899973
-0.0036186846988919726
-0.012590483380006998
-0.0004649020490163748
0.05281782237961964
-0.049292143773937716
0.02389348180833436
0.009108268560986914
-0.054510944332465575
-0.023555322193194363
0.010400172848993007
-0.029624563494089762
0.018874958544268728
0.02986100819940722
-0.06573377948138295
0.06974905270055656
-0.10772673345949826
-0.07523762296211174
-0.08895157611264172
0.06094295180327178
-0.024201756670334758
-0.013454340062211328
-0.007934823706091665
0.017283107873588766
0.03052903101044941
-0.04336093401521413
-0.059702625530536305
0.03534775399850306
0.09131433406393175
0.05161525046183418
0.003753804351317581
-0.014190424686935788
0.046813335434392686
-0.023447351764826596
-0.13386943795816994
-0.06184461320536773
0.031588467161813544
0.014626482611208316
0.007510220205016527
0.0007957109315774871
-0.016667024218294475
0.01891355645870387
-0.02802639612785255
0.026318257805697007
-0.10374649558768399
-0.012290332677400538
-0.021180065016560196
0.028969687334671524
-0.01746548521989529
-0.0564735357325094
-0.04806755830336989
-0.012813436066797655
0.018223020158738286
-0.06339218029968671
0.02027649213874569
-0.06337592466918798
0.027637312596234188
-0.031385112370193806
-0.08419190918978095
0.013950633000935062
0.019584631050638554
-0.01282717906943075
0.006998497610849447
0.046511209121571334
-0.05505306711324919
-0.014025204812518458
-0.017251377767767466
0.02303133645256869
0.01481647320672954
0.030184961234034743
-0.04769891197342279
-0.006075355770392005
0.04797893764074712
0.07120789931734221
0.014996323734266593
-0.0037444822112499957
0.05207788134549316
0.060505948137408574
-0.10166149754486836
-0.03921774356660393
-0.0355119666821343
0.10780707405293821
0.015318133415956572
-0.020473842621314256
-0.11099642409357616
-0.03893130301765398
-0.18419051397896136
-0.0307750160148508
0.043389433185888227
-0.007108838715811698
0.0005491442958917188
-0.0629622177966768
-0.059920662063051716
-0.05976061816821859
0.0223424574036618
0.03784343344644552
-0.014695658057511156
0.005525008013943284
0.03946297683602569
-0.021678593613209236
-0.05042879004520193
0.02989185322509563
0.1058858108294468
-0.007431777845068885
0.027551277591769355
-0.04209071884136994
-0.0806612793425171
0.03541456526193163
-0.03174452185267286
0.05657487989396949
0.06268358316035849
0.017940578150118697
-0.0126008520397565
0.03990814036061463
0.06433845107716078
-0.009136360494853545
-0.002044289651502564
0.04812792557440267
-0.0065565531850202766
-0.06299564753008435
-0.023012694014896914
-0.029804017092742427
0.01872921823589743
0.0575929357889597
-0.01340425200848671
0.06757864425288877
0.030921024593416797
0.022023147530292428
-0.014252132825834415
-0.02089576148615102
-0.04472415197643301
0.09339985039144266
0.024935927884737256
-0.08734775865543454
0.02148543435793344
-0.058363694363286256
-0.03743202910977837
0.010346671693995094
0.005541711847601574
0.04100095014051188
-0.020325013279127932
-0.04925453270689756
-0.07077735766251846
-0.01832015764388675
-0.08283913449864418
-0.08662956501004114
-0.006871120831211757
-0.010830620259584483
-0.007558321735000952
0.02645367143536755
0.03578912141240533
0.09166904027543467
-0.01643892689086434
0.008984918249598647
0.1795064471318285
0.4350684707253546
0.9871400691526375
0.5377904938820599
0.05340331635516611
-0.0309196284408758
-0.041485981699399224
0.023795950989052562
-0.002094472304858211
-0.06098480040695379
-0.04627050749811178
0.07960136633666814
0.00409479847543848
-0.05623484893560199
0.10150267719811318
0.016595836843519382
-0.005570304043256307
0.028774690908333407
0.01094770677931396
0.002981929003318279
-0.039906948105645296
-0.042898155465286796
-0.017003019253773313
-0.001624009170606156
-0.001957863097536422
0.08354911161181225
-0.12986571646860287
-0.03440675603502083
0.027481470045154867
0.05994774825300384
0.049218088965090626
-0.04193077496062327
0.002923457839123334
0.008352867468660399
0.023620905959171882
0.04891507308428178
-0.10359281635313625
0.13643825778528834
-0.10771128870288182
0.0018390733493823725
-0.07525404728440485
-0.01748075696386388
-0.035104859950555754
0.015259729819619606
-0.04266858581326069
0.016931345168627168
0.03773049337446983
-0.040120540265450415
0.03295203234142917
0.07970537455771948
0.06343862926772818
-0.05558311189442461
0.08237691032264649
-0.014424957235572078
-0.021976844049955067
-0.020302178879813778
-0.042986525358139925
0.011179098088034946
-0.07473502824059788
0.01902267736799635
0.033683376751594676
-0.051771503196958474
-0.04238770147334628
0.003381709924483929
-0.03833496452339884
-0.08424477260820405
0.02480007118717959
0.056223220238152655
-0.044433101642824005
-0.06818497224031925
0.08047438142214913
0.028775130873471146
-0.05092060198649543
-0.0631207135211599
-0.015088280550345704
0.04334966852468642
-0.09084938518017203
-0.018318810037266098
-0.043180897545786884
0.040633121722165856
0.06211875985532672
-0.035055015940531585
0.018120356335667755
0.021126842612357196
0.015313359223204967
-0.03813593986924311
0.013410048300990823
0.014777536456575075
-0.04101491652449961
0.05330811872997959
-0.07947105086965332
-0.029398322976964514
-0.015844416295634517
-0.015241823100500485
0.07056138490693624
-0.09586178240297925
0.042199660657000974
-0.050352405425629736
-0.04491618608728682
0.09628198126115559
-0.008205611077397286
-0.014568541446100348
-0.013660167350902946
-0.09420095358350689
-0.03457180360169468
0.13314727674284235
-0.09926345249201461
-0.02489433019398113
-0.0025275650158980015
-0.02226708005635857
-0.024538253763924416
-0.0035959969505360992
0.0671714548006399
0.01706185600545416
0.022929334982513188
0.025797283819232127
-0.0013588127364958635
-0.014599485709020393
-0.03597127921895527
-0.024976611654090656
-0.03142734206602911
0.01941359691501087
0.025880278364478745
-0.0008573487923378356
-0.03222843535773439
-0.051036369578582756
-0.0037594923453669674
-6.375611045025008e-05
0.013990466114750395
0.005097031798130034
0.07488243708499574
-0.13170929912178994
-0.06017352279544489
0.020347381036836795
-0.0028693015926185787
-0.04263652071805546
-0.00215042509662219
-0.01579142684044203
-0.03133073732417702
-0.042054206477610157
-0.05633287918017452
-0.05535979216868913
0.020363791911153672
0.025700895099618315
-0.05284864116953804
-0.0012911060301255177
0.00859734347316238
-0.02384492760227861
0.026155455301548777
0.054797466850617066
-0.04120415934685397
-0.018257324440233307
0.056506972124848266
0.04257180659626499
0.024726321043560137
0.05986967290430411
0.030219778303864908
-0.031396428336147884
0.10726017394757113
-0.07331332776971296
-0.11313376405162211
0.008280705378236658
-0.02586236018173284
-0.059925393810677165
0.10707245844130697
-0.0639597850665013
0.04133730679884301
-0.013713779829388895
0.03243874707067944
0.04141260732653944
-0.020951636343470196
0.0019095793693967766
0.08943529863672299
-0.008200381995881816
-0.011545798792331946
-0.11251017125682149
-0.05184253459143032
0.039132386868914515
-0.0027504719905804683
0.011950810873513906
-0.0004118123313052939
-0.005790895881222165
-0.03152069977954984
6.889663850409732e-05
-0.13042315974319924
-0.03046279995325384
0.03108918144850604
0.006260540769889231
0.03729310202956615
0.009023772783200743
0.030061007362079607
-0.0760475202929701
0.022235291330231666
-0.04080726480714889
0.009756208068919489
0.001327349131175458
-0.03622031470093102
-0.01322488059152453
0.03125361054275707
0.004554520122934143
0.032155479118038996
-0.04307166828922171
-0.044788826319093596
-0.07813198706721819
0.002851638771938884
0.016838856777130082
0.041117477210836986
-0.021616994542266187
-0.00489593684269718
-0.03564029018614456
-0.00024438972815686225
-0.05438483477703442
0.07976503531020812
0.4439288560419634
1.1006609596552632
0.5484487086506449
0.04435224698501358
0.022899474871352403
-0.048553278491167216
0.02282290671541846
-0.07340898364988788
0.05009784074594453
0.01664752190491126
0.03043998008844876
0.020917807812573082
-0.05638329874285911
-0.08517154163411185
0.018596603235085996
-0.018460192689998073
0.1001916444357466
0.12337318866985057
0.015452588623296763
-0.04296848948203149
0.02483533130210188
-0.07481752963177697
-0.08938788194400688
-0.034025309994458235
0.060537110062209236
-0.014358571886294722
-0.07352346855254341
-0.01978148287376648
-0.008788616234509695
0.05524464292466619
0.030268290218591027
0.07248282972224945
0.053651740182958076
-0.04000941456928595
-0.05950765871584732
-0.0035885274034765952
0.0016880864501420236
-0.013563223635489062
-0.0382370690536726
-0.09014279725704649
-0.10814264339247084
0.021093185275314813
-0.04436326617324625
-0.0015251159448687731
-0.03788291311813074
0.007591411477687996
-0.0004966972827491157
-0.020771237561941963
-0.008649356151131694
0.04663851735092537
0.016364350294475728
0.09031827069686303
0.03663284638537597
0.059573794205332355
-0.08899122378711964
-0.07862505508520355
-0.0417488866723442
0.06289315007086126
-0.02444826469085457
0.011074749670831134
0.10812467365425403
-0.05580333572446329
-0.045304654302761475
0.04478260358873021
-0.015750554979375782
-0.05383775221159862
0.0390074018226004
0.03262387454336679
0.000456715989601783
-0.041071571461721516
0.02365114081257149
-0.011563266836538813
0.010270514912256234
-0.043325123494776185
-0.04073068730955168
0.06229362612400691
-0.040115807860399644
0.06214663596820244
0.017224372786920465
-0.01571123424659888
0.03178054609042826
-0.030714675397152044
0.02331447396665497
-0.04426369556793518
-0.02604704957490387
-0.02826557867523749
0.015468120018388527
0.018465990246961
0.017627929693712845
-0.10562360585199176
0.032347678367762374
-0.010244637470676773
0.00376283805697867
0.11887846282963915
0.015382714034891063
0.021887128253943646
-0.03711891093130409
0.006290853627103028
-0.05455946941260889
-0.00858640040347767
-0.014379568110238237
-0.020495341698821487
-0.0245133694911267
0.03347068756495762
-0.05086572694001819
0.0025473447004130145
-0.041477705454056074
0.0027195088717472844
0.0032960211154844025
-0.03699542523278366
0.03140571000776995
-0.09588119957778082
-0.007628139440349512
-0.004566222552019647
0.018333436403599863
-0.024152083255345635
0.04436187187984276
-0.0015722381011420092
0.0828556878982147
0.04699556352025972
0.02864244427104818
-0.0020133878086769116
-0.03512353412583374
0.043538350566749824
-0.00681804235004353
-0.009248147496448538
0.017519039894138062
0.08107984223450644
0.053614030308646636
0.05082056461871015
-0.05296377558539239
-0.04588599330859229
0.025596126466374793
-0.01263785416888379
0.07308418561541428
-0.0784085165610079
0.00901356189869122
-0.02280712689621487
0.007947540768706823
0.10266604007572484
0.06790040592584741
0.04165100718249614
0.000947744980748759
-0.005302894268836247
-0.04285603876824517
0.012597278150214353
0.060267264584800945
-0.023235825032336555
0.03628722727430676
0.03920420141575913
0.029438038731624712
0.09996718979912568
0.0037527084673062215
0.01055005992122654
0.07886210214140289
0.03490874948776986
0.07282962417966173
0.016681434594165254
-0.03300421429496237
-0.044346101824402476
-0.07049989260712773
0.1893155389402166
0.008537452814206061
-0.03239735423788944
0.05810372690989334
0.03329388096259973
-0.055140260990121794
0.09175402284813315
0.0348873703638812
0.025228745883146247
0.025771565834312716
-0.02335969032909059
-0.03584896042384749
0.022885554122508076
-0.04508699235241418
-0.041357589007300445
-0.04675187724698424
-0.028056295421656226
-0.03877014453088369
-0.0883230598954557
-0.06718016199638494
0.04579634738730684
0.00864695131695715
0.004705779543188068
0.004847523531825906
-0.017896105918557392
0.01566718257453185
0.010067420599744015
-0.04204004508305356
-0.007043463782431001
0.010045968372824994
-0.057618070831222924
-0.13388522530913977
-0.019298772315828605
-0.009553811889532434
-0.00035583534557657065
-0.012738065617061617
-0.026521665481058318
-0.026880474490046338
0.017264275092995576
-0.09495397856380661
0.027767216257217554
-0.07146150653708201
-0.04903975951338594
0.08629710414942886
-0.07462251783019969
0.08081640853302047
-0.05579944779392559
-0.09907249221429143
0.1793168538259638
0.501648546860179
0.9951773971945295
0.5291639055640721
0.04401113708241279
-0.025433141608640367
-0.0033754391753581937
0.055526909976807606
-0.08726358661466013
-0.013992742733749376
-0.03732100705381533
-0.05018629001452978
0.04124660621649244
0.12375218146693112
0.0937825979246456
-0.01938234558389584
0.02564894975991923
-0.012978188549559403
0.009251830759232268
0.041632656413251805
-0.10489009989672021
0.05776659448593541
0.00837534761268501
-0.03377670667916864
-0.00943066566000535
0.01827474112985302
-0.03149118957780158
-0.07762693552542486
0.0022039046538390424
-0.051274514238948354
0.029773409681731002
-0.04241291691635934
0.06650690489055795
-0.00161588288539441
-0.06939161938874593
-0.016335906363732538
-0.007250552948575177
0.03395631031215746
-0.015856569417806787
0.0671111390631395
0.04792798166479943
-0.045687578461587816
-0.031657392243628256
-0.005229445959309055
-0.04522168285143702
0.04571388525168413
0.060001886680231833
-0.016960040006026144
0.012289656339982344
0.03710239264238238
-0.13219272440058943
-0.016816030206188236
0.07188307943791862
0.06411881186337945
0.06428337575755495
-0.004336220189527452
0.017351919125232505
0.06567480740003148
-0.004658154729796437
-0.0010910674785126289
0.08746344643881183
0.009698077534527297
0.08559695572385473
0.07484723246896612
0.09340973414577221
-0.11973389904522101
0.03861040040208054
-0.00915402092861385
-0.01870293730391
0.059851016609902136
0.028850516231371616
-0.06358317656704764
0.0007736300348882972
0.07204619207575623
0.04472652232230294
0.011217619948553498
-0.016604841898609835
-0.02285173057491792
-0.02918515820937558
0.049610373901168625
-0.007342308636988568
-0.019779294844842046
0.0933556602259432
0.032158767138453746
-0.013204924949589148
0.006889946036018557
-0.005772331526350648
-0.12219526176799166
-0.02638659684552626
0.02870192657157656
0.0653506654186669
-0.05727834678403426
-0.10341400229315192
-0.03618241579242225
0.028771958545359844
0.0542588091996512
0.02178322591273906
-0.052199624101750164
0.024421006465157824
-0.012015143365230033
-0.015111318594445823
-0.0354874835618677
0.033374233367788185
-0.03964604530544563
-0.06678672744729612
-0.017461046253504548
-0.03064211037741259
-0.00280197317200743
0.02563141239485217
0.008073207401902724
0.0063356644147767
0.024806679853030512
0.0033630779669441405
-0.06047692124112778
-0.09637362036475727
0.14758119607406803
0.05682157228509044
0.02805762618710474
-0.06738444605774545
0.06043397584033042
0.06801571274657058
0.04280829368584288
-0.09118787421318555
0.012818373627190011
0.03080439950238527
-0.024446148378559684
-0.023446620965571117
-0.065368552037937
0.004093842231465446
-0.02981372835211442
0.006349259856281219
0.04474117974652986
-0.02791058194799087
0.0745147149318517
0.022921444894875877
0.04131177452498601
0.08435510086227882
0.06133211941559226
-0.025747152236434107
0.041097519008740875
-0.029685272821775317
-0.04001445616704885
-0.00017198542975241875
-0.0038961470873310395
0.017967104854992182
0.012950430293627968
-0.03015305670337648
0.14251430605551754
0.03506881594125121
-0.06332562060166212
0.014308560486695834
-0.04930492538968506
0.018230150227149935
0.00446963162545166
-0.01122909361109864
0.0350138650937696
-0.028944261361654212
0.06684377434429961
0.03661282017720261
-0.0043947754563691014
0.0847811502736612
0.023240787003564838
-0.08091383155084216
0.1101804658184953
0.03148176164130081
-0.042832470336629645
-0.02717983750478495
0.0708085484306706
0.023665132709139468
-0.012553141792336797
0.012938687316941928
-0.04118270216208192
0.015221655355076575
-0.0378176349099903
-0.07783200674865026
-0.032694588910293435
-0.019412427524137736
0.025642208380605776
-0.026464767042566197
-0.02313529396409098
-0.06210887553427387
-0.08822362662535486
0.04252776747104732
-0.040088353358716404
-0.022511466259770324
0.03784927688858709
-0.034278666419544065
0.024155424675758944
-0.107249541460531
0.03884049952424017
-0.008797149542474096
0.05760019558539806
0.035133232902204284
-0.09191673870996213
0.0010047576090125158
0.02420044557947497
0.006201949985304829
0.006975989514133321
0.47282242965042687
0.9613192006913679
0.5537099658650375
0.15919969154405803
-0.04218579390308645
0.02884742145186589
0.05616246522627227
-0.012660951205945296
0.006182205576524451
0.026884407934585398
-0.002134909307878391
0.006388696601724148
0.0798899678724393
0.034853115491569164
-0.04797775658179207
0.03235145013864412
-0.06833840170438453
0.052140917978643446
0.0027828933505212395
0.013906802326533067
0.05244926925278548
0.010531403308436507
0.01258546724737002
0.0523782251499254
0.0064162660243151995
0.0037331015158034403
-0.04053305454029282
0.011630089600422076
-0.041271196481032585
-0.01422196839494659
0.026819582965417844
-0.03491082327113939
-0.011679817698056733
0.006887461326825959
-0.02324955171655367
-0.03899222354763892
0.0008393685921344699
-0.0031815562635474125
-0.06318611372808014
-0.021322370215819376
-0.05240831163649745
0.0010686631272142537
0.03870140068744742
-0.013331419859923374
0.022267689592526025
0.03365018145212754
-0.05667088937534818
-0.024294851539402834
0.08469856922598414
-0.06936961781836541
-0.03209497240997652
0.010078888330495287
-0.023531182952702675
-0.0184217705157236
-0.014407260607760522
0.006316735394718231
0.009038366098024468
-0.05021099530119675
-0.014488972924592126
0.11801252639108345
0.003825700751692831
0.0617534074430211
-0.013997156598604114
0.10040042345723664
-0.008067683251515497
-0.019183341752738753
0.017249629719328762
0.017760602733497513
0.001956093734755061
-0.06747227446049658
-0.012408011021290388
-0.07096577160460958
-0.058202493993405574
0.04863915228920468
0.05451796820703904
0.003917247396772505
-0.07784794363325154
0.05175741262722503
-0.028856004034687827
0.017167958986899007
-0.0020899520893018085
-0.0620125641440106
0.0042948777858072265
-0.051482948335542414
-0.10751403922387681
-0.09289404039358684
-0.008902792789537322
0.00013870915256099356
-0.08021842499753785
-0.034628921110156384
-0.007944870770585295
0.031078998992123758
-0.0008771004342118373
0.02304531775742072
0.03450993962881936
-0.07003165523879011
0.01991396315420285
0.02507887578724079
-0.05135436774821958
0.061979182327105545
-0.036732867017203345
-0.028667199267311535
0.11586681144421647
-0.02209260152284828
0.00943530725912351
0.009509437767527855
0.019630350321006823
0.07650584217401932
0.037942076762681055
-0.01582570525089577
-0.09215235006981515
-0.04652991158036893
-0.029658690854847226
0.022808160954395834
0.0132033923912373
0.004008506902751106
-0.040082072348554515
-0.0006841523798668714
-0.017603770918439596
0.04310623048932913
0.037526361419066095
0.05058452675301504
0.006003853097341593
-0.06639156947410256
0.0973639889374839
0.0857659774335437
0.07943568074512926
0.039282664417421564
-0.022843479736049895
-0.014533553358291852
0.11894051486490727
0.03936647994840549
0.09790995885211418
0.009516418109585777
-0.01963639336568868
0.06840254089797372
-0.06138288036436046
0.02669308400408333
0.004326167442504063
0.09614988277582802
-0.0768022205856418
-0.01843810610151615
0.07132201501199885
-0.006765498130251825
0.04140504791121122
-0.028684195084331367
-0.012126893705237146
0.025883069739704945
-0.0051565502064517925
-0.057577009430563146
0.038064507703339245
-0.00525865967321948
-0.009290494744253919
0.14201802913401285
-0.04584743468411425
0.0367864031547264
0.03126839261072607
-0.07402935019884548
0.02952056510842895
0.051055085750628316
0.02678098771794118
0.009213870073037202
-0.01514176727076795
-0.14191706064196022
-0.10276061602157101
-0.0045390473807648615
0.009670125425099835
-0.04131989449909662
-0.004352633141162973
-0.004691467516791862
0.030950630231102512
0.03208757350960361
-0.05200309107188379
0.0798331886514581
-0.0072514922602382355
0.025130884266787404
0.05725015820590454
0.01996006650203852
-0.03556580615285708
0.0021724538613060846
0.028568070650797445
0.08552398450983632
-0.027346587943834995
-0.06365109252686668
-0.09607351750720533
0.05818999615262217
-0.04123837005358159
-0.016680344286378893
-0.08609631020443892
-0.030749956234423215
-0.02558628002422288
-0.12139900448628554
-0.07820885360856528
-0.025580065078357556
0.020923825126725863
-0.05436444462730944
-0.005080465015767137
0.01633476444347931
-0.02180406229429291
0.18515092960564816
-0.00497748755727459
-0.06720656157870335
-0.011090664845403955
-0.065577766089399
-0.009377552632170721
-0.019221738843739927
0.03774523322688449
-0.026027933321904246
0.023565965469333573
-0.004906506505617144
0.012890023285992487
-0.006468800727605361
-0.09181240930643622
-0.018143198046815658
-0.016299748127349183
-0.07712171581743822
0.029683197688680316
0.42626133800691407
1.0342046574379522
0.5876617419716228
0.03909067731478885
0.04665901571496277
-0.05416677429896451
0.08101802359944213
-0.023342824443905837
0.04334939578443673
0.025506441112895906
-0.02427899426983762
-0.06078489934888272
-0.07239376829091557
0.13175536356442827
0.01478852680748296
-0.023077288182660527
0.04177618333318647
0.0010679279327445261
0.10965175209268173
-0.09015844523673837
0.05605405218960555
0.008883309774038022
-0.075186075562857
0.033959794996843644
-0.0032774603916552758
-0.011767167912662163
-0.02155354706499299
0.008143435979829566
0.02579136016308177
0.0849104777565493
0.06907264574973478
0.10434402340024806
-0.028849296227191568
-0.06228227422337105
-0.02517028671660515
0.04559740651210512
0.009073182151551715
-0.0028074856972719322
-0.005125824351765007
-0.05147250203086898
-0.023302971809689765
0.10473797859875661
0.07028171578225192
-0.07672637722696411
-0.07486254293195224
0.06656422043336932
0.01233807884388345
0.002697114992331913
0.022540723328269112
0.006231452625595064
0.016252391327533835
-0.007968318933084606
0.002575687202737011
0.022176196634174326
-0.011631152248680438
-0.02058496151331936
0.06331154453950824
-0.05264182943817624
0.026983102682731006
0.011998202058311048
0.002323471379339867
-0.0771881732816187
0.008037098939231883
-0.007612637612510098
0.056582485072096234
-0.06359316233187184
0.10596536889054126
0.047086074131106555
0.022289404654536608
0.07277158468211474
-0.03025410517931484
0.005838218638093438
0.07569935448546224
0.04312970592597047
-0.014310169616484056
-0.053401846020684145
0.0023803155067027644
0.016419969336272145
0.05798846142790401
-0.08857147146935829
-0.03652339853266356
0.06025096996255393
0.01285150342889472
0.10527652085129602
0.05417670316398097
-0.02511463082850912
0.005166548377383508
0.032077205582472235
-0.008014300436928272
-0.013891753566878204
0.04037639615127955
-0.036546483148463975
-0.02539053685451626
-0.07464211064251146
-0.08177415907000385
-0.019936653788178885
-0.09558856461394777
-0.03818234637212358
-0.005651551724231032
0.053316477970850956
0.0018253928008781573
-0.011183601473736088
0.028980295185895306
0.082149213025284
0.08350197423079048
-0.012866703789381284
-0.034503612360991226
0.046581388437560295
-0.051437289176122385
-0.00039703536602999734
0.015344517645642694
-0.020226072969112257
0.0096792713609779
0.042684342433389866
0.02301925400624459
-0.052322496047150696
0.006306603973435293
0.03547786828627457
0.0012082715556016184
0.058858722135487034
-0.0377688961655135
0.011955550489598578
-0.019413432475680368
0.00011316807021385862
0.0029042281974338965
0.08150209340522525
-0.12851503441846843
-0.007923416542860271
0.022112426468751275
-0.012442237578400718
-0.08712820390249852
0.010081871027071376
-0.0313175164154978
0.07881182815518861
0.007051930445172772
-0.0666548393437274
-0.09541539950596334
-0.040978884269629826
0.02275634763794069
-0.08248037052024892
-0.0005250171734400928
0.06781378747924287
-0.017811422427819766
0.05122038738671241
0.002348775424833497
-0.023559727116990614
0.04388424537350604
0.007722588660334869
0.04765847029174634
-0.04054842463501638
-0.027342246522699728
-0.02908732585106314
0.04298203424915127
0.018834201155657815
-0.000806506869861682
0.06605051038197629
-0.03178373563751118
-0.061619456866317125
-0.012638873121916711
-0.08874190075999704
-0.01674551942886979
-0.02110984012851857
0.02320452241353314
-0.007597902117866685
0.004197688053199008
-0.026673238335986095
0.04139837717120952
0.0287620397073034
-0.045787086810318
-0.041777002169698395
-0.023321071267306467
0.053396401443020436
4.538379516948619e-05
-0.07394428735894666
-0.034734509235832496
0.0135862837453609
-0.03471470080293559
0.011913564246277368
0.01109145200201473
0.0005847110507639668
-0.0661883824038083
-0.002185225894935227
-0.16116888318128442
-0.0197340105533128
-0.01216702055811349
0.05290787859769493
0.005130956980028158
-0.017455903495567204
0.017976932157469996
0.0008677583989427995
0.012283683387389882
-0.053624111712329274
0.001094251545344486
-0.10451643700957658
0.06105224087779381
0.056926819365576566
0.023091836444619124
0.09145621729085869
0.0015992730778606437
0.1357869735202691
-0.031741315546278924
-0.015098926702953347
0.04761334980810092
0.08449185493808176
-0.01535949580791187
-0.03663592478827449
0.10493455614926953
0.0894811268601578
0.0024653557385239024
0.024270162884213783
0.03585532465016985
0.06530199085291193
0.12291400222940167
0.44109522890694924
0.972547238048115
0.45773136699287426
0.17471967826906595
-0.019273908148468043
-0.017424489452696795
0.0508508204202258
0.019357419708732643
-0.10796363835504097
0.04201816693227872
-0.04189653044906621
0.04193666404528668
-0.14326152374437146
0.0007322210958437156
0.02642693780691643
-0.03130324799101255
-0.07920506803761132
-0.04735002522141896
0.03534986780009667
0.0021108185843360583
0.007876154831233162
-0.06203991991443969
0.03438174684723653
0.01935594623988278
0.004018112459809778
-0.03624837027526385
-0.002065045591027294
-0.07883529398079123
-0.04292191343011319
0.05394388820606682
0.017146132152260737
0.07025290743729375
0.015694412662111325
-0.07069773883764979
-0.03284519627797671
-0.04210063962131668
0.07760020152296597
0.001537051953764141
-0.04190317089311283
0.056648700416829324
0.019777650937164167
-0.049989536438833776
0.027028555785652244
-0.0244915198992786
-0.01210627361138178
-0.08577398910858725
0.00023105445793293995
0.06291143493793666
-0.03595032834881945
0.10291239953798964
0.002407477646525706
-0.054083583925028794
0.08060545482230042
-0.03603592759174693
-0.03843813236829579
0.017708505895063134
-0.06730630115213516
-0.06033948558405594
-0.009882565000457467
0.004697297622514106
-0.04887305578405816
0.06572578513694509
-0.025678726995740215
0.0091434252716181
-0.038823042896493236
0.003438750706484981
-0.01735526606228381
0.10406345211589957
-0.04573958214284725
0.03418322865523143
0.03644475467051621
0.0669652662336319
0.009611047232072326
0.0769650463715597
-0.0011675609536084322
0.0686341065608587
0.0023968750201185446
-0.011838647028974553
0.05781381099281633
-0.040106018115154005
-0.026518254549467837
0.01604603645839629
0.050264924436160985
0.06566917291704431
-0.043131885414247395
-0.0187505792449303
-0.043260951060512844
0.043906886414203095
0.05182318592672311
0.0033214170781360325
0.09488106576992461
0.03766571408841957
-0.01583157196192875
-0.05515134704146463
0.020703174028008167
0.02257787291334693
-0.013762390653633058
-0.05785011114158355
-0.03078437473877542
0.017397711222345215
-0.057270747313541794
0.07346664147750864
0.0030225991872978738
-0.031870938511438934
0.012444865089065069
0.15259931337540739
0.03843658140930939
0.06414902034447688
0.024400941667066012
-0.015087207749055821
-0.10558669261515569
0.030216033497356572
-0.03837269538341886
-0.046788947473906856
-0.027884092877176237
-0.035325041109067
0.001158083281616474
-0.048686233225554
-0.06449124388976409
-0.016826978631228836
0.039570173855379275
-0.07865559346008974
-0.09982448446737019
0.057975722070379404
-0.014866416814717828
-0.09052352215938358
0.06445026894636871
0.03163089485306415
0.06470924691558348
-0.01728472552517677
0.02678490807185804
0.0570878556306074
0.035190465790281476
-0.01268564539258123
0.043462213639729935
-0.0035341265252910275
0.006456669649930739
0.062021488147021235
-0.048222418610680495
0.017238109417496313
-0.14453918520492381
0.018213914039470525
-0.07675305372238794
0.04086718508279046
0.04944323743514591
0.010681725044324785
0.02584415558885707
0.009569974374671495
-0.09645071225178345
-0.034583558323030776
-0.039101023549767716
0.009851763254422656
-0.0017406943683425842
-0.01966432887066376
0.05401355131603541
-0.024980968300074995
-0.0438069900093176
0.0016272403098308184
-0.036708455275644945
0.011655790325072858
0.044748373343492354
-0.04830837440338787
-0.037515836268681
-0.05494589741571468
0.030007753021540923
-0.027499263681157172
0.005392707567403381
-0.03402939591974636
0.08902956089259986
0.08022595861556758
0.005401833456872025
0.007590760576355587
0.0043169047018343015
0.03889061009638575
-0.08029102550415217
0.019148425902707406
0.023718703452640676
0.054921972947238266
-0.02127596752020837
0.07001439899644302
-0.10654901573265307
0.014915866964293686
0.03775900725563558
-0.03032399477357986
-0.004431734928726604
-0.09054844497178875
-0.0003376813064063392
-0.0888585828595923
0.08714922595362952
-0.015460960865367898
0.013713242501632342
0.021926282227274836
0.025879326175375222
0.12103120161735104
0.05218574228858735
0.010923827275483432
-0.0594825899980997
-0.12128156450426564
0.05915075558619529
-0.02514504959882315
0.0235630412673816
-0.107015900960141
0.02609456605604171
-0.038745108147549084
-0.06084430730121404
0.019184256290690926
0.06934317345377757
0.018263791811582053
0.0064699117352923
0.02399655449528196
0.057050410220667896
0.17129393168774643
0.5058911790453012
1.0602558887705533
0.5045240925778217
0.1159414791593632
0.05544607154444645
-0.01693882518613696
0.03838359078284556
-0.04406822597902617
-0.07598164607603197
-0.007537904961741851
0.07983152029955781
0.04111867169709422
-0.017662994028329763
-0.007816273879035591
0.007045179399810271
0.04114546773544353
0.050499782707847364
0.014454023595620178
-0.05400314642636237
-0.04080407244404947
-0.05053056889429069
-0.07378830282969238
-0.031087526584203298
-0.02173604790197205
0.04843262381409455
0.019461474516144966
0.023313088971604105
-0.046247410812840166
0.07440101269673326
-0.028409214716223125
0.005279221555534261
0.051771410039137614
0.0734626316138341
-0.04382041981566501
-0.038830888289046406
0.001797669600821068
0.048654614083880394
0.0793349742072181
-0.01122075114602605
0.06791494618668396
0.07713143548490795
-0.04053590120719683
-0.060487772661350636
-0.04289222241427335
0.04183705968617778
0.045524670912185435
-0.04988936915981378
-0.013665698751572626
-0.0013353240355662571
-0.03808040645145008
0.09686505306795501
0.007327483052526257
-0.01772475347120685
0.0013635064249160078
0.026570833385901195
0.06804178995337083
0.027362341228082815
-0.004209529824470151
-0.016752524491892143
0.0016000572004052347
0.04482082640605123
0.04830766703802455
-0.011142233881939072
-0.0456497461527686
-0.034826629660552576
0.0031840174473299525
0.02184314772826352
0.039269030336034814
0.05368675956418914
0.03510440459620544
0.023181694927906813
-0.01842787482133895
0.015911068474887494
-0.03861826962084521
-0.03990405661880206
0.0404771314337605
-0.022824282727613183
0.09342708265824495
0.04700899236693404
0.012963849234367032
-0.0032576780407425066
0.03192363366988402
-0.07287619837424694
0.08227895785649324
0.010005513763133375
-0.0006987197675752886
0.035761875125209334
0.0026557815503897766
0.025782579512093624
-0.0101647161580218
-0.017383476146983625
-0.023811326989488985
0.012481390272970556
0.06264960303265052
0.005380570470992611
0.004081245464532623
0.050445884488424575
-0.0797070475213182
-0.00729914964722541
-0.04856698449002417
0.023210013640489524
0.046935819275328104
0.0482371368114061
-0.02611095482858293
-0.00782579625478639
-0.03473110113570807
-0.07882916068998647
-0.009475500621181469
0.06704918840583296
-0.03158399275363398
0.028192583212347178
0.004255517587333709
0.05861418063911372
-0.03418119121131204
-0.025012209430127275
-0.013085623571196234
-0.04983395522982207
-0.054310059268332704
-0.03475334283352359
0.030780097057249642
0.05944179124769511
-0.08805782363223896
0.06004591981692974
0.04201618136841527
0.037546880344014155
0.024965707501769522
-0.02117670533290275
0.028569897956749232
-0.052174160205444166
-0.014100359270353828
-0.06014143294426904
0.048505766638331956
0.03294492102999605
0.02372701729694102
-0.04506082798635327
0.020371881261224422
-0.04453954006521887
-0.044202489904173636
0.021038551977804607
-0.014319873398324133
0.02996647490218285
0.06761668188057827
-0.014828293132000223
0.008759614107183558
-0.031084360684016262
-0.0006663841279958295
0.03933825403477749
0.014004978164567776
0.01949466679672216
-0.029079866784547843
0.034053579325140096
-0.11462260091598304
0.03851693865675648
-0.0070055114727979656
0.017910893291504703
0.0613195892354009
-0.051317120675518794
-0.03913042645559264
0.03046193153511491
0.04442375396040408
-0.03769573622676427
0.008961468469948901
0.09535291542081807
0.002254433525878003
-0.02050227301418757
-0.037563937520384116
0.06969097411735298
-0.00628971299041876
-0.020386943368067078
-0.022778688164299527
-0.03895966700408978
-0.027241407388333166
-0.05612772834821849
0.008689244370753543
-0.034410436823181983
-0.10248079038411904
0.05694286510741791
0.06019068748499617
0.02363677462358968
-0.08333995795795468
0.14008276885165827
0.04566264782991165
-0.009920621099939365
-0.036423084917891015
0.023070902967889648
-0.07061003001287877
-0.04684660225782247
-0.11431121270747031
-0.004099893129480355
-0.04704062664242831
-0.02181906263034491
-0.019362992739208367
-0.04054242645780278
-0.03837028709676493
0.0052254319806697026
0.06747257175195051
-0.04191659932044858
0.03511799859791567
0.009589127324282368
0.42902389852727196
0.9794064103260365
0.46948667554334
0.1560337424528005
-0.025871237344405103
-0.0466803020951399
-0.030157061107212196
-0.025659543908620006
-0.018220937457080973
0.0021017087859889066
-0.08460030237467187
0.08259512879357575
-0.014267186849456149
0.06089712076993029
0.024737208916347193
-0.007064666453479227
-0.0465181948386601
0.0001680135095692205
-0.08674520358689009
0.10214723478805184
-0.09761903581439894
-0.0491788813863819
-0.061130333857267516
-0.03805584988926439
-0.07447564952699823
0.07236467156431152
0.06191869616814208
0.05300919614459781
0.048937549093432696
-0.020337280918732645
-0.03451359003512182
0.09067704542848665
0.0021501186753864706
-0.04931232702334846
0.013143404825588907
0.06125191170526345
0.07448682573695381
-0.002005734939572559
-0.01583146588844042
-0.023151635976782964
-0.11958198943486026
-0.04681465047088238
0.01677945085266223
0.12024105667166887
-0.08574357539702937
-0.03403266501840038
-0.009392003827611843
-0.10905545217032386
0.06972017887300871
0.05102877947492911
0.015758892175088992
-0.03778940688368316
0.0401344607834211
0.004220391914608692
-0.05919442964811601
0.04169110667204251
-0.08211826380010014
0.009774635218290813
-0.04652569703380449
0.028069342144972795
-0.04156864558369341
0.05694367180954518
-0.028770872091915367
0.041298144767566866
-0.060077327792377636
0.010220873863225025
-0.0673677557098898
0.043883668139373756
0.013086343697686745
-0.03483747068216709
-0.04560690387624974
-0.09378926484150589
-0.06830043863170045
0.05439264583836139
0.07056653082743312
-0.06363914552808457
-0.004592108769088611
0.07185882311962401
0.026692331344534227
-0.026896806709527682
0.05422810021549582
0.00929327657907527
0.0001912047515167149
-0.0029628427148305214
0.05800684514201129
-0.07752240246258395
0.018353548935121738
-0.0003490143233872093
-0.05400548233174727
0.012289962674830391
0.007205851973839367
0.0742827726995589
-0.08486898315250115
0.004913745025241348
-0.025445370765079224
0.04632628785285035
0.028012384627110417
0.019398440214252157
-0.043139954012316656
-0.020140502502449534
-0.08629807564184581
-0.015555128857589258
0.029848129221865468
-0.04635861233177939
-0.04434298828033847
-0.024739465722779273
-0.009266457558179522
-0.0049942817258317946
-0.0891228212090232
-0.040092390215162844
0.007413335111826279
0.03233839708395678
0.05316758755103529
-0.02217364609545194
0.016707649318324285
-0.000412647310607368
-0.054571283397069785
-0.055957077214681655
0.02362860995280989
-0.059781228105422884
-0.06289375452141933
-0.03479187411957255
-0.008471287731605428
-0.044430084539016396
-0.04416566741796884
0.025221903339229843
0.04249197524848919
0.0020023635070073177
0.054478498465347
-0.05302966655495555
0.041387087194517384
-0.004700179247503406
0.083362739029869
0.006875347773949221
-0.03582080489849657
0.05532012647760037
0.0431266542953012
-0.09174804424329033
-0.11106049003717014
-0.010378643156798144
0.016821718158492895
-0.03396831483833474
-0.017378077858062887
-0.010500228650552501
0.03516588517677587
-0.062173015894121865
-0.020351954681093565
0.02082946106407978
-0.05721511171223936
-0.012685606711759051
0.08352065432108037
-0.0058483318637194
-0.04571179466797862
0.019998655769322856
0.0752008497023809
0.00021150797379913862
0.03320086118755582
0.004166595819766528
0.12124452501928638
0.028228245421015836
-0.017306474718994113
0.07366733242455897
0.03324802364950841
0.06634320433878382
0.009800334612319998
-0.007558394627015475
0.015921451287741094
0.00873104417833509
-0.0031927753771601574
-0.022406864874855492
-0.05467993944547931
0.030179736901785038
-0.0027224620336971056
-0.031127264306111707
-0.0033074323767812667
0.018611248538414022
0.046876468351995604
0.06506663193168773
0.06388938924084032
-0.023240185463909612
-0.000427308504776859
-0.04333386291505404
0.01881335846438531
-0.08613603073628957
-0.036309886732858246
0.053583829131973376
-0.046360719095020986
0.04225523632845424
0.06628448696852396
0.01944366933961317
0.0027141403468608927
-0.0050523546563388914
-0.015932200199665625
-0.03269148293295275
0.06729109843864715
0.022338025871393163
-0.05816752266851022
0.07765225901485931
0.42589240606504475
0.9798086657832084
0.5879382102528065
0.07005285302212694
0.03788071564563095
0.023189603764095457
-0.047636213314840276
-0.041448607547216965
-0.05874254988267145
-0.012279166041919212
-0.03142459164424918
-0.0618768139717388
-0.031147615467442637
0.013056186461785833
-0.06941879076999823
0.014177152121643517
0.032125283170298294
-0.0351277364555345
-0.0721909895301748
0.055414522563870465
-0.03262660960844064
-0.04045296410395996
-0.07730294534163097
-0.02142618798723617
0.041570487499939454
0.019495614286028792
-0.12493027482202677
0.10410135999608111
0.10639912856504162
0.03254652537977521
-0.06816235637243324
-0.017121225621230876
-0.0677441179361503
-0.03616689713957985
-0.00881933464730734
0.02581471599358866
-0.028973013663362954
0.07352810795217228
0.01597092805918587
0.010205751167339773
-0.03623537851988023
0.03571222181540697
0.049677901257592805
-0.03413115569425684
0.07147815729576937
-0.08989782131560241
-0.14136935432879136
-0.029286028484431
0.08859625776397438
-0.002976882539188671
0.06677776617662527
-0.023445256894320598
0.07808948406914798
0.052160813036140466
-0.06398060409675178
0.007226677378064947
0.047758582249995706
0.034066948562295245
-0.09132093605736079
0.11143249677544996
-0.04973769726432642
0.08358974038322337
-0.005117837391163056
0.03248021255104993
0.00395047408708946
-0.06400565406248074
-0.01187359805545112
-0.02708637117651974
-0.05450525814247133
0.015504716868618474
0.08684263075050863
0.02990656390782789
-0.009053742755589697
0.022192617965536378
0.15662211718052266
0.023496954863781543
-0.050635870867229184
-0.029573023761673364
0.0166817812767766
-0.04612175122972067
-0.0031766657903974337
0.07737832054674965
0.017998923633511677
0.0041810360518051174
-0.06912020454604421
0.08594860090202787
0.04753099065516
-0.06063726880406838
-0.08831144181557778
0.0789141549175791
0.06593482522608737
-0.029105675608411825
-0.011096106277752272
0.040676469777110105
0.06249116915254915
0.03341343679631547
-0.00024590723625883944
-0.09209259310698174
-0.013118079998333238
-0.04408760838360565
0.06579007262597265
-0.008079572260505761
-0.021074169771322492
0.046716111647896665
0.024945374075939233
0.05609329666969365
-0.0007389559198308837
0.027317576779443648
-0.005118863806419454
0.06658784089630769
0.05287553778562631
0.06870925226978786
-0.0014291170346222668
-0.10380703489917027
-0.05151977009422685
0.009336943970280015
-0.08380649715834704
0.08385134171792505
-0.058738124990529494
-0.05212133994981738
0.04736675099460316
0.023378923500343266
0.009613743634591828
0.02187214439311927
-0.0058230771948797975
0.037356209271422504
-0.0666153275009176
0.010940720271163443
-0.12495921961286244
0.014916041697931086
-0.0266243539817087
-0.06323929100353877
-0.037578849526646
0.0021069388440362966
-0.06432018853492598
-0.07787094391877092
0.06751542172924295
0.009920064897387462
0.06954587026109688
0.09915799978105745
0.0037923208852980875
-0.07893237401627407
0.0338955757993941
0.0934143329234235
0.017344158922673224
-0.04183823069211035
0.06392968177163356
0.030096230214498917
-0.03049974452155424
0.03357179116199711
-0.07697669205026164
0.0022544666718118493
-0.03971606185148587
-0.002400871913746603
0.06365529196298104
-0.06334139133708488
-0.0275602473689589
-0.006462534952909077
0.010407173089623405
0.05214163857518174
-0.08758637347242164
-0.05432131647844294
-0.025752848279851383
0.08697298995740617
-0.059076324151711726
0.01797625778822016
-0.038979453384419695
-0.03254791906908241
-0.10399143907090458
-0.07680465640231798
0.0177852090768044
-0.07629712940785183
-0.05847662923726182
-0.0062800759900852356
0.011005125944619705
0.08951609497242224
0.1003136586594594
-0.08297784717282942
0.04949211825505854
0.029219763934788968
-0.031631675701922775
-0.04169861209203466
-0.04028531540788069
-0.012238540804264095
0.0202983192521735
0.032888650759981514
-0.025206016945338423
0.08358369993149599
-0.0997932552480492
-0.0386191893567917
0.09997811606444391
-0.007493126407333191
0.028494405257597378
0.058270371229102835
0.029483009688245278
0.02967794554281032
0.04714038036667062
0.009788093200484918
-0.055156512500330414
0.03764841769343731
0.052860704782113854
-0.0739452463040801
0.012491263893956555
-0.07512146029935453
-0.01143850102453702
-0.0584359702703176
0.08282900699154933
0.2380825091522968
0.5198351566160365
1.0099578671162617
0.49441316287618364
0.17562794831426173
-0.00480764869825262
0.006557776975067867
-0.019616418264897476
-0.06446552178055828
0.049364159862276456
0.023270599747939644
-0.04898377814364147
-0.03271776553175672
0.005603141527818178
-0.02974409935030268
-0.027708206405765462
-0.036524750257150705
0.004678825105858055
-0.000288467026935681
-0.03232483426080012
-0.044292606626985864
-0.017451413347344038
0.014871227400007079
-0.007061845755482101
-0.01655382423866815
-0.011439735621920358
-0.0069873092611418474
0.010548363049955845
0.04830170745194425
-0.005404959276528606
0.11754884244637297
-0.041004691702071966
0.10129145914974423
-0.050148487086148066
0.05083327013742736
0.01055222086470031
0.010692520137962994
-0.015747191090979405
-0.0387320568626855
-0.004943397596501781
-0.10032681924234446
0.03859950667465198
-0.048247208394940955
0.010505055766212471
0.07154211117668655
0.07010258021280068
0.06658875791619759
0.019928543253155143
0.03530972053248239
0.05362999692725822
-0.09089399457447016
0.12145251581703514
-0.009751707849675167
0.000990249359328181
-0.0881563302013954
-0.03371468291039377
-0.05609773974404313
0.07186559670472913
-0.010996196336888166
-0.024202452893803524
0.05600573703600445
-0.02826218583688502
0.10912011687872408
-0.04327379135016837
0.11342420018705349
-0.03704844070023124
-0.03545793769958077
0.09759403550094016
-0.013839029773081499
-0.01794900608734565
0.022354315919312834
-0.01012346099202447
-0.002462186387233724
-0.04453013358590931
-0.029724144458841015
-0.009336740394909024
0.054604330223552794
0.03555667550501881
-0.036494995805048634
-0.07670360095936138
-0.017057729123915115
0.07427200591009685
-0.033272118671905326
0.02637877603217574
0.046816340227911625
-0.020123793457038876
0.056178962495792274
0.029002585169973474
0.016754735709523495
0.06786241124253399
-0.0563870656678421
0.015316280909421618
0.09243184915102232
0.011565122104050867
0.014773405541790128
0.044757142808066454
0.0035515112433947165
-0.039923003623567585
-0.05045334445158019
-0.024946537913151063
0.01335925139744857
0.004721901655747667
0.03321653532735947
0.0325543393884636
-0.09071266307283465
0.054555188960552725
-0.01665002881861218
0.007632861279217478
0.013689374979004645
-0.057354018599409
0.014584529312365955
-0.07624638148006764
-0.034982510570674134
-0.0013591796391341443
0.006279218417247554
-0.003708209814379318
0.015497816419496116
-0.0796647099826158
0.11458040650841295
-0.05121685932297938
-0.07214536328246685
0.05103820787224968
-0.012977438741095443
0.052434088138958716
0.101610852313007
-0.04954919471296958
0.08521988640161156
0.015130253658748625
-0.032854242105342185
-0.018175865096705317
0.0019826333839691526
0.007553364140063129
-0.03997733096344795
0.05688940942324575
-0.004960583873498414
0.017246559198564246
0.03864450441897105
0.06752823765070606
-0.06022859511901758
-0.00043872958643773036
-0.01863037393402762
-0.0001558558208028663
-0.0645111636327219
-0.016638227770788
0.048969724726642974
-0.058366943672203624
0.02593072235169144
-0.04186996505721059
-0.11478523606548066
-0.02972464257323525
-0.0331668768958499
0.003879403051874869
0.0354075508200368
-0.062293574603853846
0.0810150480228441
0.043995331764738695
-0.015390039215057091
-0.11318537910201526
0.10028172734088235
0.01822736158062699
-0.023386578556757638
0.06322033065030662
-0.03990407846029567
-0.008731655080384771
-0.03776226410251297
0.04972283011612705
-0.07636832891463313
0.044965350229851854
-0.03539568100120671
-0.06254934080582049
-0.017044526446063767
0.08041567835522362
-0.014536901645169194
-0.03564189586140485
-0.07398060153050191
0.009015947501963445
0.024746381563467947
-0.03721458675760891
0.002460237750956405
0.01695814248901547
-0.0030823437353602453
0.022402579842790937
-0.010716715025657774
0.03332509778210879
0.046255052561691545
-0.02260576510917969
0.036642941752059746
-0.009806277364844889
-0.1361058554562191
0.09172645055809397
-0.005399540819795977
-0.061043684985754604
0.058016125888073956
-0.018376529094790463
0.03314362310317963
-0.02973027397287148
0.02588531835783769
0.016854722292710796
0.060737649309419384
-0.036596666707782284
-0.017390918433832146
0.04236841265974045
0.00254092535182579
-0.10707320443303095
0.031704645141666016
-0.036274199993781314
0.01935823833039158
0.06784258803008024
0.014776545154293204
0.03565836446337271
-0.008098098669181993
0.027023284443428264
-0.06776002360714974
-0.04294101912084367
-0.09466452310987335
-0.005604805446218722
0.027023442331042605
0.5616592740849713
1.066810751342982
0.4101018057498731
0.1495089042502197
0.01582425507288473
0.02961390600597842
-0.07868482183279087
0.030133004543540266
0.05558894745099255
0.023772344891313954
-0.07336995010982433
0.07442647271692818
-0.0324879736356785
0.08248600150011248
-0.017981324429881304
0.0340099789675468
0.15416752076419127
0.021428803479786537
-0.026131564781054568
-0.052162393789095145
0.06363559391699329
0.0022888456267440584
-0.014674931652269938
-0.008121084167129039
-0.06874458562466315
-0.014990588226769352
-0.0969122360682489
0.01673238279976545
0.030449879237525776
-0.00163215979636237
0.02433196455493228
0.06291046996106076
-0.01594540390721011
-0.021772626677349735
-0.017560241197934055
0.007009534017517827
0.003232747923011261
0.004978989134300816
0.008920244504772995
0.053284089420823126
0.08980713631200943
0.030341194147514322
-0.03929799010283891
0.04789109413423276
-0.005715852372343405
0.06377859670844307
0.0006209130809380797
0.032897043592867894
-0.027864739997021284
0.03554230579590966
-0.00175439005372839
-0.03497881274416937
-0.05469896320857329
0.02925872432851428
-0.019450887882656503
0.0351626686761996
0.010765391086931086
0.017556812800170577
-0.04044424848949349
-0.016495133352513538
-0.007006209353633719
0.01109249884008631
0.0632001432554528
-0.016102430120933684
-0.025088290987419066
-0.008021997466690411
0.003990248677429827
0.0035347778037860852
0.0010108472811364137
0.053753301708731854
-0.07056038307347885
0.017359230492353783
0.0061341308945589805
0.010849572330161057
0.002956668372912353
0.07756236402351509
0.06064308183395704
-0.011161989471626783
-0.010421561697851491
0.0045771631551058635
-0.015734380491583936
0.08703347232619879
-0.07579489026676534
0.03932819093563805
0.0556092439055138
0.036454058827824064
-0.01873077993886836
0.02601407921934909
0.056500339258736654
-0.0261007198950841
0.05352372437395486
0.05806293416044213
0.015879025705330677
-0.007781285521470355
-0.013394597271217508
-0.02041544885083431
0.004155053346855155
-0.12032846253452044
-0.0346416549219536
-0.02595202742371852
-0.04091985468639989
-0.013293791500772485
-0.07974102030475949
-0.02583585054510275
0.0073665302291096805
0.057083072327533436
0.018098974033043506
-0.00022282067060476734
0.10239498858970726
-0.02129712611727256
-0.09153741279110073
-0.0588657252157909
0.002865951367752303
0.042240762295879614
-0.02565584338930757
0.040580139352701425
-0.02870545908959849
-0.07569965005110343
0.08309526405748739
-0.04256063613170159
-0.021404811995987
0.021795698449743866
-0.0034443164557564064
0.1029610080601789
-0.010170441186597205
-0.09376583661679415
0.04347842348558962
-0.022831067014652873
-0.03143597172272469
-0.0599847901987545
-0.026582464628635883
-0.035183976989909355
-0.02282327686176278
0.04500010625802525
0.09868735739416717
-0.009644080076506903
0.03290289155005774
-0.04966067612605942
0.0016341075450437637
0.013229875829063084
-0.040752685130025786
0.011129176415047102
0.06286167333191549
-0.04172883921815838
-0.03748245094599941
0.002763559158182298
0.11471689697075416
-0.07765078094907402
-0.06284544660058777
0.028945778245861822
0.06759168601011822
-0.013574461355870565
0.041476879062316764
-0.017483144145728276
-0.0067652766781959115
-0.006319579679230321
0.029612638765381255
-0.03152827573898297
-0.05857307710465094
0.0012713045282199214
0.08567801374008643
0.030051798970657226
0.07916335413468516
0.0583038982564682
-0.0035879885417125328
-0.08557272574223196
-0.027673655046221796
0.0035310927747613146
-0.001642113068164381
-0.01769515545243845
0.07232653388489352
-0.00406437023789043
-0.01682574847986605
0.06821993861183374
0.06929938435498309
0.02823382675049362
-0.06290704230321194
-0.03918729340127165
0.07424780886600467
0.03158971991215019
-0.019207074830454127
-0.017216447954689504
0.019617744829128266
0.09961597002324368
0.05356283764653139
-0.1144295908211157
0.053802892758038325
-0.07686501064828376
0.03665510596903346
-0.022001586459337488
-0.05343621936787943
-0.005782711141583445
-0.009714365176650197
-0.019195314881265857
-0.03258399549610412
-0.0829917205562673
0.05199111972314651
0.0028065649361806236
-0.043229460797638064
0.016880823803800744
0.0478887810673309
0.029044459271283532
-0.07957553160714756
0.022542773662397517
-0.04508120257067112
-0.07270542231419505
0.017077273972196477
-0.01647464508342667
0.020538336474365353
0.05458842295632748
-0.07699421435109283
-0.03237582863016507
0.020006004914924852
0.13655014188052098
0.5097212194657977
0.9721121593930472
0.4784228015235378
0.0793046632102394
-0.061087317108801824
-0.020434181533964563
0.057559759323242726
-0.06904503246968892
0.015854226226879174
-0.12048645048474681
0.13247170929582128
-0.014970502033532014
0.1574006292507898
0.03321314721579446
-0.02781406583155422
0.09140125881541665
-0.04344850157146735
-0.026906159257708125
0.014989383758401455
0.08452857329021608
-0.1069720656010404
-0.008879493347358207
0.05980082631555164
0.004758278287689034
0.021108535132130943
0.029797540971359872
-0.018563221338036645
0.08301726484541849
0.0578102756352504
0.09620169940757878
0.023483713317694825
0.009909631221660116
0.010482316782877418
0.022937845328865107
-0.04617481397720998
0.05031689288456534
-0.00581227260409084
0.042197241131456384
0.07119024099949824
0.010505815330379122
0.009982990151929633
0.07840053049600354
-0.02218773525987422
-0.01778905543587313
0.006765060940467267
0.09645822291165623
0.01925442390595436
0.06248332348573522
-0.0629449999917717
-0.05354049160178136
-0.003472762321966352
-0.039958168290380375
-0.004059533967747965
0.022372052781569004
-0.029790021661920758
-0.009476469162864671
-0.012907618839400566
-0.004012897015806319
-0.00469346067347501
-0.008453005279281589
0.02497704079391126
0.018718321873534238
-0.06032726876845967
0.09134079783359471
0.025706821140692324
0.028101309798660656
-0.000268039494881659
-0.039506015998952676
0.008739935382784952
0.02012393498138572
-0.021365361644385142
0.001298962401406996
-0.09619361318144551
-0.0034034353784084762
-0.04541631761439891
0.08491403506633353
-0.04823150862790179
0.03790289338908088
0.03444489137229096
-0.09227279505613553
0.0015531050997986294
-0.06902213734705706
0.05691705364862516
0.03742555254814716
0.0279639586312878
0.005315446829422345
-0.049102253355190285
0.07218787089925002
0.006544395999443307
-0.04787169678247664
0.13785151566231443
0.0012227989361037108
0.09543677128840286
-0.030427465662536676
-0.05724641025510777
0.0974029510828271
0.03890595344735751
0.06781451702747525
-0.005824145769092456
0.0033173453153815223
-0.05907136354992727
-0.04643295048937611
0.049940785489296306
0.10541136545420887
-0.03580657317847516
0.06466091942634647
0.03994068225724557
0.02360701595932799
0.029231818035154362
-0.04760654515713405
0.03096910847787006
0.024724431515181486
-0.02546746120380496
-0.059461045680404036
0.014364075387337923
-0.027824046036560714
-0.021136232230538253
-0.02316783463899036
0.013213366414756289
-0.014337036219787262
0.03247103554755132
-0.09791437367241539
0.021691893282707188
0.012709532792532736
0.10152637795731481
0.009484483432372888
0.011651518995106358
-0.04862682300344115
-0.008730781457925786
-0.06860261705477683
0.02238723587255417
0.028198451082151788
-0.04508891396824952
0.0779826441119726
0.08964913180727968
0.05216247835436542
0.10728405917665924
-0.07307036962731826
0.02360613083400587
0.008943342314898657
0.016293280359446563
-0.01901770579043177
-0.0034928193677414825
-0.019656616828858303
-0.039391084037743336
0.025476000010101203
-0.053877589736177844
0.0020366010091049116
-0.00411981999664511
0.07524633219454535
-0.020767830387133375
-0.06589605622408491
0.059851908096017176
-0.006523047411777872
0.1043456056979592
0.03352572639787125
-0.06127133115977934
0.030323055023305054
0.006495543646133372
-0.032928715974350396
-0.06364150833941466
-0.01793058926109436
-0.07586903542123799
0.0316849795887699
0.015183841137491447
0.037339735018273944
0.004175714694145165
-0.004271140194763473
0.0014028270831568088
-0.041401621713182284
0.010686768276244511
-0.09361635723525766
-0.039119220521488585
0.00215681774986242
-0.06526657523951476
-0.028261574271167766
-5.167009911127128e-05
0.0993959528606026
0.025187984469940302
0.03513005406070241
-0.023100760619577335
-0.012413259060118415
0.0066360736894822804
-0.03786368959496314
-0.008618536707260458
-0.04667938266186067
0.08937281500941245
-0.004856650364591645
-0.005738471102244128
0.07447517126736151
-0.026321879439778442
0.04403896886795441
-0.033793003461248736
-0.055554836839920546
-0.03587494398453655
0.00888329846990519
0.03273692874833078
0.008533432997384252
0.1374257272001523
-0.015341676742890838
0.01554547823504182
0.008205186761322399
-0.02168309641544638
0.08064443489063607
0.03169055789403976
0.036542213295577046
-0.06377635791456854
0.056648514348287576
0.08579139792439928
0.019421037607064418
0.09963442241485228
0.573014575295994
0.9479332879816205
0.49746835835359876
0.05497432112848312
-0.009469607889418523
-0.003161572530333771
0.013860251431132535
-0.0009016108286125403
0.0020817201944141996
-0.0077939368627980695
-0.03486777673320097
-0.00047913113930348275
0.005843875201502108
0.0407072979478567
0.06004581371304714
-0.005848895687104971
-0.007232849373612059
0.03200670841222855
-0.03863353246940985
-0.004876619438765376
-0.0061003858846184495
-0.005910208704877463
0.047454846362133256
0.022992960418095357
0.0019325564132676998
0.005415693880806668
-0.013628105175474463
-0.031233331908293666
-0.034581576612817876
0.06442937373545754
0.11100890821847338
-0.07276740767714117
-0.047981306770230936
-0.02451014141469192
-0.0035454489343109893
0.06018921973766658
-0.045222765726907775
0.013044101480450185
-0.026823229150424857
0.03260731167555968
0.057685624786689996
-0.07444458638746838
-0.019477716452013953
0.10199082748812877
-0.00951131357755377
0.05431943823256476
-0.007808958954730239
0.05536237453209744
0.003771852047777546
-0.041130065778341794
-0.04668729675414138
0.07366438182220207
-0.054372653679344546
-0.06471805539521013
-0.01769144691737278
-0.053384163277617906
0.051423424639265206
0.011224079133035733
0.04008129323680845
0.025984302895293927
-0.038524194037031084
0.09778237869044344
-0.01424294001286957
-0.12081000709437278
-0.013929467336355097
-0.06390447827783512
0.03116672482261386
-0.052921404738157124
0.06506007275773106
-0.003398096794157659
0.00799899946710513
-0.07029382330376559
-0.0685618131998017
-0.03554621599946696
-0.0591683499590971
-0.02909284110284809
-0.05870595191212411
-0.13208578050864694
0.07830331259878145
0.026118345355120667
0.013936507398376081
-0.008468647882576315
0.03106685701836775
0.01612470720773517
-0.010659021609446671
0.0024470779865373785
0.08253197023736147
0.08319403325008837
0.04905374125876985
0.082422245684599
-0.043971986122833935
-0.07404366845770892
0.04751991823682572
-0.09471975184347302
0.09286809869589041
0.011175445375953169
-0.0360784419612046
-0.06227420903520479
-0.05367035281158377
-0.03134727063248884
0.05915532982624391
0.08952566613698877
-0.05564118042099795
-0.026494731490756086
0.030936567703867535
0.08308722521481898
0.05706457419258651
0.04106956739326246
0.04128880620244565
0.023362444253091516
-0.0697072581169311
-0.0483889234540403
0.008307705809717889
0.14119855357344702
-0.03480860784295379
-0.042037108344223334
0.03849754138873884
-0.022254574566831428
-0.06499122636815895
0.0469060089998391
-0.07565173769171027
-0.07732540056400256
0.05831604010495095
-0.03429252749608124
0.029951476454427278
0.0023478735466250533
-0.016709971088307126
-0.09330683774116674
0.001372229581233702
0.00938972926085823
0.07428316169830065
0.03797726767227162
-0.03859784048136116
-0.04081668824474374
0.024814834143599893
0.07163804323429258
-0.09687967589134149
0.06841413249137261
0.0005055651530487109
0.029513917389390895
0.05098999332463257
-0.015272943379428165
0.09259219142009896
0.05302821946293662
-0.05591459379553557
-0.012241403111134476
0.08130589138145307
0.041998121063246734
0.041680931557405654
0.01991746882013705
0.07876697938851182
0.03187307225268857
0.033648220224780055
-0.03036870718213952
-0.05862128424757758
0.005983506757816372
-0.029952566928903492
-0.00410440954469734
-0.06763600744021257
0.07314760408601856
0.02539086355540875
0.055247582196630445
0.04777633229129911
0.019092768349127136
-0.007099322723529061
-0.06491315462466378
-0.06371808759002258
0.01397147232377708
-0.0626514258459485
0.018550563516808324
0.038832270449173686
-0.005992001129562045
0.04418524217969679
0.0393894863789019
0.05320713540684571
-0.06993701745101272
-0.02832492195823727
-0.039278714709547996
0.06578651258302458
0.01683886104541886
-0.03883002981615563
0.05386762982981578
0.015544688740041597
0.027885695720817893
0.04668150585344632
0.01936538517483683
-0.02676092442670583
0.036042852971745434
-0.08857074920435008
0.004540135180967172
0.038695883932443026
-0.004328049753692728
-0.047488841301126045
0.10996962575066237
0.015625560507419624
-0.00909046800345661
0.06864626655593403
-0.07644470563671357
0.04423443636144674
-0.04475539269624328
0.016949977370788696
0.01582570677146963
0.05217349743112692
0.09517772952958987
0.0024838511279571865
-0.002123830582693104
0.015037795609807062
0.05679990469580305
-0.066548016952996
0.14385777847626552
0.525766409007919
1.0521170374557025
0.6176427313242812
0.0811038792663324
0.07002090562567052
0.00517575473850316
0.030359381800088306
-0.0056536377756247515
-0.010304354782866142
-0.020623964142996876
-0.0385380509536479
0.020373797852139334
0.027627375354662222
0.07317123339676589
-0.011904436377532461
-0.02122040971269289
-0.06134123066791173
-0.014706460251968588
0.001577051144943276
-0.015714859350003926
0.04012905588201551
0.03776604668790156
0.07107912563577302
-0.05635303446478301
0.022131802077487522
0.003136865297126293
0.053989230092729594
-0.030994161456116866
-0.07129636077270109
-0.011869391010417426
-0.03850603199937657
-0.0066130390757559755
0.0142108705748806
-0.04055685950892308
0.08575778189598185
-0.04609060173373911
-0.07344711748559617
-0.03871920020557471
0.019608757950268216
-0.0014398072113235717
-0.055195232566850785
-0.06460437732927962
0.07551255968059037
0.01911771518152493
-0.07508238014217176
0.018237665090293974
-0.04073917911450934
0.046666644052716644
-0.018871522813658528
0.0019248756852577554
0.06224063699541872
-0.05133518037487034
0.03798384798517857
0.0371780869384366
-0.03828030624934525
-0.10409964533774481
-0.06923446081982428
0.05516544611780394
-0.0580393194294803
0.024360029795741242
0.081139893349363
-0.08217165736168958
0.08053576824427956
-0.007854302268870041
0.07497146425622785
-0.03941975159104849
-0.08916861633326402
0.011365468226722963
-0.0139484634099072
0.013707626436024498
0.02398039925893186
-0.08860569499469512
0.05427132461514067
0.08074989189681835
0.016490191638192122
-0.042699708224282845
0.057342422146666655
0.03627032969957958
0.04190985807889727
0.002227527103170398
0.04342024734152326
-0.0796131355606631
-0.009025921651908835
-0.038516154883416316
-0.008129637361068925
-0.0009182975478491345
-0.09287525576995431
-0.00757421494073588
0.016568421455039083
0.13118524160392095
-0.025249256215436305
0.039553168877715525
0.025014649714135192
-0.03787128098518233
-0.03581033009792296
-0.0021621263329423862
-0.07154135825721021
0.04647300355082592
0.03959939766650883
0.0319358508648507
-0.027594328101633925
0.09965967261353524
-0.013069367054940615
0.025159931344959183
0.012860264833930282
0.059028579756757606
0.08506454049880414
-0.05971936925618665
0.09442848340796713
-0.06161305013528293
0.031423212292942294
0.04823416971383197
-0.013312085812347177
-0.03207464865495496
0.002274499878746047
0.03934764254312845
0.04374399217803177
-0.0035337211323314566
-0.048569756400013084
-0.005085227595242072
-0.050095988331060826
-0.023737040888067672
-0.02145370363694987
0.0645207933982335
-0.02196097269678067
-0.005545080843106603
0.08513647130589146
-0.052049606416832844
-0.009074138827431985
-0.020470354586731937
-0.029650769014305446
0.01943622928930748
0.0024020332492384554
-0.008754198195559035
0.07793328306400646
-0.09856723239846826
-0.07646066837771136
-0.05399531488233039
-0.05652820159231606
-0.010981513010131219
-0.003937066149507411
0.011060010375027012
-0.043613188227514844
0.014932022370814002
-0.029682373116552804
-0.04315311077222329
-0.043999308340377075
-0.022681439006934864
0.001930335196960157
0.05183943918224207
0.04572451029247382
-0.04371417819838308
0.030803691959076826
0.007362615301693429
-0.05622251869858829
0.04050872456271161
-0.08007870166534971
0.017700057030604892
-0.029571495284227447
0.009780887175294696
-0.0019667923930029962
0.007501719526359106
0.008486225472643476
0.0951777192622207
0.033986981231045404
0.042945700579410946
-0.041158511090262424
0.09401139403443172
0.06434364686250325
-0.018778319338035684
0.06910321278075256
-0.04345578947070658
0.05795082693944284
0.059082347224749115
0.08226328002064826
0.05650565746727795
-0.0004668993512717695
0.03736471836061314
-0.05377192669778816
0.0350170112289081
0.004453145882037645
-0.06156596807213957
0.04500930851054667
0.056219146690044845
0.11484701420111816
-0.0974371202021822
0.03663629213054297
0.07426918415282761
-0.0208398945984604
-0.05853249780353146
0.09268030664443766
0.02767352688505951
-0.06068588700163098
-0.0363210756375075
0.054935573964809886
-0.019563431553587
0.04623764615680709
-0.00803627054054376
0.09628374580115123
0.5227181416711393
0.9214519201310118
0.4677460001077
0.18147738735028618
-0.011100448226701589
0.017427961164450223
0.005982002136503185
-0.05168447393133666
-0.012028547128142891
0.030862638974835134
0.024792631486936927
0.017398746362304176
0.07506562293297875
0.027529542271060484
0.0029597429151083086
0.04068404012732879
-0.08386326870455968
0.01128259091600921
-0.022741441117681428
-0.0325444107388104
0.03865991155099183
0.027370416601196285
-0.005464577595785117
0.012745289260719434
0.0391934030788606
-0.04610520720741665
0.006429861446918513
-0.01365549634360283
-0.06261325466170602
0.008269677881520296
0.07811509302402192
-0.044913030156406256
-0.03248806456446516
-0.0005744866106850001
-0.021277271280296176
0.02347640411572162
0.04945434632385928
-0.014531213921457318
0.0014643279201464407
0.005432677372161619
0.02843646850370557
-0.048808774701854955
-0.04707394865802012
-0.01180635683926237
-0.02036383973297927
0.008230027609001328
-0.07783810254908924
-0.08085124642100633
0.055891979527856066
0.00817539961194639
-0.004496576692770046
-0.04115450998015809
0.010495243110767273
0.02585055368346565
-0.011924104007235854
-0.0663090221003447
0.023929506638657796
0.023308943647421893
-0.011886989114444768
0.01579729465852969
-0.0016374258506639955
-0.04792806359459814
-0.0016764416929391105
0.07841658924802646
-0.06373650561083084
0.003078647485421147
0.004194840287418576
-0.06229668606272513
-0.025900901030324282
0.04061216446217548
0.04297195024832292
0.05555603351682331
-0.04904339963370305
0.06430291087406076
-0.10408185493320934
-0.031072373019933392
-0.04778210147958505
-0.05317188962211571
-0.10411836340224408
-0.06248594495800946
0.02478399673715531
0.04245803460795607
-0.03781880698548281
0.047571281954082084
0.05584332850905513
-0.1084060069616742
0.026821871507777713
0.010035540767163703
-0.060987043191092744
0.07767925901000747
0.004420491192713243
0.03793002565458051
0.0728815735987438
0.03845049444476182
0.045729592747666706
0.01929534190260593
-0.021247804376789702
0.025938497404367895
-0.04658301327791185
-0.04235304518954719
0.08377713733232972
0.04169004277047872
0.02106996649222141
-0.03896506815526676
-0.03978601999226859
0.04696246943481001
0.011983384849888886
0.03855278758454231
-0.09796640825228044
-0.09583482733823022
0.04568850187305692
0.006950080887841351
-0.005961744614057658
0.017870257780729558
0.052952402757932795
-0.008258964815293576
-0.04611928619446804
0.102726216131718
0.003184605105906547
0.021448498182721886
0.04081743115526755
0.05722535458377681
0.057119539367500693
-0.03908360757374275
0.046534471727677884
0.09176898495167748
0.050914319439062695
-0.01751022326192567
0.03688666505109317
-0.03466539592900989
0.04522500454626145
-0.06933570905741158
0.045348507796844184
-0.00869172551132546
0.04361004199317679
-0.011663104931267178
0.06592914643901564
0.004401992337703997
-0.05773535827454229
0.007256053642933337
0.0745442840081324
0.029226525147855648
0.02233927414885915
0.01174222715390484
-0.019235133977336557
0.048008662779639145
-0.006896518903747328
-0.04340749472013022
0.003563193970329344
-0.005713211163490592
0.03284464035703085
0.02889172753562269
-0.029018964047565116
-0.08073409796875446
-0.016758646549161274
-0.027793017175296753
0.013630609113813603
0.024758476335749742
0.013654062492769563
0.06740272202421586
0.07352996407459077
0.02363276241833484
-0.029249342620920812
0.058900212963300086
0.00657061099074752
0.03804241112870104
0.04361615355600449
0.041037256410129924
-0.13051963035602063
0.04805384439866453
-0.04528313631764261
0.011083752847327918
0.023698914828427176
0.02930560380623694
0.05246888898080552
-0.06189737420375088
0.03071409477412474
-0.007341813359827225
0.043471212322076416
0.026256409762576833
-0.10106967574417614
-0.03519047467001636
-0.004995315052589709
0.08295407902308088
-0.06991037211994705
-0.01852106437846515
-0.03701719485368748
-0.06076755969395914
-0.07407918463134705
0.0777287896975574
0.04299097615270096
-0.04199416730578141
-0.02225588163807828
-0.006979425007733123
-0.04099756559415797
0.09113806638378459
-0.006035118238974139
-0.03857714065404705
-0.046295607988144846
-0.023323595121541037
0.14336766915350463
0.47474834764015095
0.9655076834239853
0.5286522781639558
0.13389897747813023
0.0291530263001336
0.02339337052711199
-0.08587248826571192
0.05067179200458205
-0.0657244024095212
-0.02371446500178499
0.000923569603998592
-0.043086982685955136
0.049499506423276565
-0.029728271957003588
-0.024692049949050963
0.03051837395324465
0.015477415920524963
-0.02247216941121218
0.07079540955111703
0.0167629988157393
0.03594087472479411
0.07916090208068556
-0.011655438170909077
-0.005682248568936016
-0.0249401460006992
0.061691091762052355
0.021733435756605822
0.05591778130714652
0.08125779240926712
-0.013314198792891621
-0.019475068463683243
-0.0030744795275131315
0.04290285901239472
0.04153887523735767
-0.09896639291721859
-0.04633929031501056
-0.05226023481020277
0.03547353563699908
0.016815884794005753
-0.14038273844606572
0.07761978428550845
0.0031661152769276745
0.03938499029278719
0.020656096226483844
-0.046147066570944514
-0.046506026126456906
-0.008293298775575072
-0.0813861515952027
0.05467939259904883
-0.01598499404490688
-0.06321321015102675
-0.017641130917551404
0.0965488890221023
0.06248726081013988
0.008220941514177836
0.08183105777627468
-0.08509970142715781
-0.020769710442506
-0.036478209467604904
0.024433213933054823
0.041984321627266015
-0.03651190685838729
0.02527492583273453
-0.01773167137810805
-0.03380603172188297
-0.02599021292482085
0.01480051692333563
0.021177864239060595
0.064289930837414
0.010786357578922373
-0.009608294650431188
0.10331513304639245
-0.028312232152509838
0.04097717275977325
-0.046281397536109076
-0.04000698183294549
0.1275634922101477
0.04335186717273807
-0.057296590111445105
0.01968507246360274
-0.07659539824537909
0.04399882928658445
0.009453025393394392
-0.013528990697143027
-0.056083258203571074
0.01804403924975364
-0.05533479584696045
0.02844617102322541
-0.04184975112435551
0.021647733302375582
0.0412275100482184
0.015728153071437472
-0.018056078035092918
0.04948310752458065
-0.04352781883469685
-0.06434997204297194
0.009775099241969168
-0.13380813934247948
0.07278343276174344
-0.04005998244329754
0.046658439810272595
0.022245517760535502
-0.012487076886402994
-0.1201254119989311
-0.1477276164619833
-0.016019183728462533
0.01812518823588404
-0.05007804303822221
0.030088354438752976
0.049738707752099806
-0.03210496799736181
0.03576138406605697
-0.061780345493781225
0.022645072375256637
-0.01296410973258696
-0.01345931527754364
0.01755818742561786
0.09117170352233618
0.03159582632564015
0.03388647804638785
0.021905478591839056
0.030583767351168408
-0.05420117451721368
-0.05306496776791184
-0.012545805651447476
0.038362933202539876
0.0011033022320300929
-0.008007868267686433
0.017913098693869048
-0.02070886234263561
-0.08873254338285164
-0.0029565936910951767
0.051533747317083205
0.05205783820619147
-0.022808129282725107
-0.03822660712677207
-0.0659808523354199
-0.054394160018039706
0.005117574562457667
0.040740298402782475
0.02515716519823745
0.028124876689926383
0.025990291570885
0.03055870284346975
0.07239575424584858
0.013224643095552319
-0.03476880998601465
0.006669383788766559
-0.003655669718538147
0.06987764308034596
-0.011971227208144024
-0.09079342546748648
-0.017631232418904297
-0.07391002236114295
0.008178896632173627
-0.06816634749052079
-0.10098590329470032
0.08093391792385163
-0.10025190232211603
0.01829133829414604
-0.032693335199115735
-0.011388351195150775
-0.08809243625516543
-0.049375741560985696
0.018190614434404354
0.033532920665256295
0.004360727107957809
0.017386278222961512
0.035876739804165274
-0.02406260498795553
-0.022752534349809256
0.12754208054598892
0.022035682943116256
-0.061297535692845954
-0.010026530603262522
0.028667383520353276
0.042936607757298934
-0.008439534423193512
-0.09204336215779318
-0.06989536909543788
-0.02879004451620333
0.009816786473251432
-0.018175493257353906
0.04118327956940212
0.019797713029292376
0.00369594042772263
0.028755483429541845
0.04022680288417359
0.004827098319338282
-0.0016201617792119998
-0.0604540440230263
0.009339586830919218
-0.07612748161773102
0.028762673068386937
0.07081746071462318
0.0006328353993133955
-0.06535021917739134
-0.018547052627500244
0.0020201503770053376
-0.09350380273942033
-0.04207566353625565
-0.030990846719299164
0.0701634760806296
0.04450912980044131
0.005790457655557606
-0.04021429813760871
0.013238503597337515
0.05512010646288761
0.5136046016818957
1.0214957761494587
0.4830434735564669
0.12047734686065734
-0.054596578972309656
-0.0434873839278248
0.01446433625011471
-0.000385754768756198
-0.021065153600595556
0.0905245350418369
0.06003366250243203
0.026099946375955335
0.11328946189249776
0.004846273664384362
-0.038291902020596943
0.019032519791889614
-0.03257454176551117
0.047051439678867754
-0.008420170668345984
-0.05439334139540848
-0.04677141671577857
0.0014674078064023047
0.005382101689064164
-0.012942024500906812
-0.06135308635219995
-0.09403323765867948
-0.009100065888192595
0.033523529914255966
0.06927900831393055
-0.10322135168299695
0.025008985229909075
-0.0812331956106162
-0.014650450150723776
0.10631751782443527
0.027651067491938044
0.021801677067822118
-0.029898793461431445
0.00666634928358913
0.016540315520573563
-0.08473569507828119
0.061479276846225644
0.06393048235019147
0.001216730918103529
-0.01674028897384171
-0.01455804752208919
-0.0014886920640623672
0.021424122475450655
-0.027149981600458402
-0.03507226674327546
-0.07597215095151921
-0.0817706751181816
-0.035684701163299366
0.033828481810361764
0.04578337711882832
0.030802961351461974
-0.031143183406082464
-0.0004440485502952124
-0.09910149051858252
-0.03901459380477546
-0.000992001415259739
0.07112647782771378
0.052115981304017005
-0.0675402473975929
-0.04571645054235856
-0.03570630378706357
-0.026961690921562816
-0.0030329523633389334
-0.019737611824344286
0.03337831935628669
0.0007735242967836604
-0.09178713654940082
-0.02666812278138425
0.07414435956652232
0.043872859707302925
0.007597460450919015
-0.017057916250698725
0.04601727586439783
0.08986704338336131
-0.037468565333059804
-0.009273037603841966
0.04215060193139081
0.02102049488261633
-0.006363593930875159
-0.004359172984087525
-0.021573158444297687
0.002891632953458573
-0.0013511737313371417
0.05108894648573425
-0.04481861033603971
-0.02162442127058997
-0.07268859451217285
-0.02228055008326084
0.07150430427653222
0.05054258081682066
-0.0787052228017135
-0.1224599163257931
-0.0682393698090363
0.049305823496684
-0.08692583435246243
0.0112374582969781
-0.02485099640955842
-0.07130185070934124
0.009812189357429987
0.048623182231178896
0.027454590443046458
0.08712637984493658
0.051230256847873905
0.0828440898928996
-0.05746530050277088
0.04797968267100081
-0.04567725786283962
-0.03564412130802712
0.02373557646957738
0.06823139549109344
0.0031655211360921034
0.035194227979806175
0.11707252183894967
-0.014610535733470207
-0.051943599845727634
-0.0005364397374811115
5.4876971556427514e-05
-0.021516994775156374
0.06518915039498635
-0.09277757046275602
-0.06316138394734282
0.061505848184917604
0.10061205553186368
0.042709067544632176
0.12735884005728043
-0.07088282287958197
0.053440866072613884
0.07842784139231804
0.06524300906296669
-0.01106711983558704
0.007268211810473559
0.026607325221203394
-0.011401192421842852
0.010177639666438747
-0.10447985610409849
0.03780167195254597
-0.017631739784009302
0.03929953490643719
0.03980178378992516
0.03746845476580717
0.003611629675534807
0.041856087422832464
0.06888586673876244
0.0684190735343222
0.01801087389609884
-0.021938182365771115
0.019023594508628425
0.03814611341212801
-0.04940635313495777
-0.023459573957817982
0.04273004209132198
-0.02015906850569933
0.0007858697768481027
-0.037059792777845234
0.033759402155247094
-0.03976584338436507
0.009199083099668041
-0.04932755164518288
0.05070044129547831
-0.05161183289320364
-0.07859809458279882
0.09892280317114754
-0.029620084529993602
0.039812911511424826
0.055996019904359706
0.06933564257439533
-0.00044715183841618735
-0.06648590089848715
-0.025440467007761525
-0.10404890030321932
-0.008274713520234178
-0.0016554548824716882
0.0057813127396200495
0.029757864692516112
-0.0353551890586174
-0.026974734831252175
0.04836443539144462
-0.07207561467902177
0.019774701967256534
0.01688235963742966
-0.04377915133093957
-0.002022005922671013
-0.021569539781139704
-0.02751045636534656
0.05491067127733919
0.008328144398225903
0.01938761486719352
0.03055980831484055
-0.07255216943612423
-0.028385047583679487
0.05727252560902943
0.02213900249167862
0.05078230971107589
0.041276034833490474
0.06844395369973073
0.004017998548537789
-0.03144719823015191
0.022595764348056317
-0.026330854700520108
-0.009869996465298098
0.02162568248030423
0.049610171776477544
0.08446106858182742
0.04133696325753578
-0.0803209391487806
0.019406197162066534
-0.03784407559881099
-0.010271897793648413
0.019317539068225933
-0.09571316257388378
-0.06274838337701494
0.021215317838333417
-0.00676430921923418
-0.09345364440415571
0.008170060841284589
0.04305044756220959
0.09340811572957658
0.1720985936049888
0.5011009996763753
1.0121055725573933
0.45346889640315835
0.10185894449991029
-0.030914093346611788
0.03549878210021497
-0.04490880827551062
-0.013205778981329259
-0.06906012373196134
-0.0006943568112249404
0.0238602429822736
-0.10665796011942366
-0.02992412331049253
-0.09497401120986917
-0.12837475272047794
-0.01726809394998174
-0.034880068516555486
0.05498880755008793
0.08717573060716939
0.028746962300212033
-0.07925931680815143
-0.00827267755378063
-0.04313768142397593
0.03303170452752486
-0.0697893144099954
-0.031024313548253236
0.04930951288240082
0.023310996002043685
-0.001966072580093434
-0.1123733266077822
-0.018583884879214564
-0.03926438517735071
-0.12153344608828094
-0.0610870032324922
-0.055180204215851486
0.030731751203747517
0.05379071756188978
0.011024601884753245
0.06532426245864034
-0.020546744850407403
-0.10929320623386876
-0.0425920573012321
0.026014832410668806
0.007567696738870037
-0.019618917394311944
-0.10639155094920622
0.04719009580111927
-0.022995442186620738
-0.00674452574318745
0.03759334174719247
-0.141396604326873
-0.04534519303908449
-0.04997702818223951
0.03825323212830751
0.028160437349229545
-0.040614276483805584
-0.0789978769396014
0.00711059375179434
0.0004562152047601256
0.017449837452631855
0.02221947640141853
0.04743663122463882
-0.026533223557507136
-0.02702905349931052
-0.03180759435195643
0.003097204384999838
-0.11141779592745349
0.11246714354285486
-0.03430157645011714
0.07298990059969594
-0.008308492702336438
0.018949008851887883
-0.08781208424246358
-0.05198595497307423
-0.048090350974746524
0.018389546581852732
-0.028295507658167764
-0.08979940009014437
-0.040874901417173926
-0.06356702826485965
-0.0032187731416892305
0.12328976831241965
-0.014592800304247425
0.034489983379127336
-0.04515898915231953
-0.007048569058842837
0.013894175443536192
0.05154092270011096
0.02534409471722587
0.0123734673481245
-0.06208180999563261
0.02733293521567495
0.002284528102901691
0.0406110405281663
0.012289792035392792
-0.01987603098515134
0.04279550466916183
0.07577086894814022
-0.015023920292897262
-0.049295888479162976
0.004517864861073995
-0.0494347282615841
-0.07880446840120356
-0.016682334244438816
0.06790619934203139
0.018077307663723303
0.019916120672528778
-0.05562951061340182
0.019223826744955624
-0.03429850983966823
-0.09739028209227127
0.12207315409601059
-0.01423407358642901
0.060741600243747265
0.07257592045325341
-0.0815880017078866
-0.020796798086114537
0.008726195092272591
0.03192979070154571
-0.07577168011768998
-0.10284041580595414
0.06842601523382169
-0.029538931756499305
-0.015380745390120812
-0.04904452622900068
0.07510504974047089
-0.018959488937077905
-0.0719370110153283
0.08422426887718452
-0.00798377656101534
-0.01672474191943608
0.04159046424670257
-0.022016605961714175
-0.017849723422954638
0.0501788048705676
0.013079922147651689
0.023210787168562525
-0.013854063549320523
-0.0812577053465511
0.08649497833598951
0.03461441952505452
0.08170444863241959
0.0025050409405476294
0.07040417155009339
0.015457649754340828
-0.07642136080990686
0.003440627333997344
0.03893722309005426
-0.008451845293718856
0.007262560210113771
-0.004733042354467161
0.04132266088990618
-0.022442698159248174
0.1398304385974882
-0.04160091121578054
0.04299282648526909
-0.12426969308405698
-0.02335545899617652
-0.006222603707022533
0.019747169486665293
0.01582926562399273
-0.05115784982640307
-0.01886955882252327
-0.048256205005151605
0.006516670488617236
0.046189359626609916
0.0019538526208479562
0.01587643439219102
-0.008737886847041727
-0.01663741012592906
0.05891251740628779
-0.01264039026472014
0.045445816686389855
0.021390424229068467
-0.06079002086405943
0.003971768410041988
0.035553280686380605
-0.00473582801899181
-0.03802438541788675
-0.010041761216056289
0.04929832195322664
0.04516569967740051
-0.05381927406342562
-0.00041273996064523395
-0.020119857609239775
0.021631936640293906
-0.05250143678635342
-0.04203798747903978
0.033818716970720974
-0.05192353931488253
-0.12015880541310581
0.021087945308808868
0.03861050172428867
-0.024656636129164966
0.03568573789528381
-0.009611141535066633
0.012186144100211823
0.012609266827597575
-0.02982957816642659
-0.020852569411278703
-0.036262691196357735
-0.0009976732201414096
0.5551258701300752
0.9938184519040238
0.5396442940902765
0.12500366785490416
0.01630266252940413
-0.030527164045073798
-0.022982870784370207
-0.029745242367802634
0.050772796153190025
-0.06319428270696875
-0.048656048507794064
-0.002456194978537345
-0.039439163432085644
-0.014276129020995596
0.010284803060045797
-0.007685710687697595
0.02656919942549245
-0.09289918421972757
0.0037390327292398415
-0.03884293540365114
-0.05587117367102528
-0.03412400129582539
-0.07710805419767008
0.002697362319753253
0.08283319671970626
-0.058809831431178586
0.012280779628590501
0.023636759994474066
0.028368972083355426
0.013511424436824529
0.006475077708599431
-0.012533874427403655
-0.012805319066976004
-0.0071425844358877465
0.004779946794512248
-0.03592773179786633
-0.04648807437255897
-0.03274223923972127
-0.0173282436993517
-0.021291377576041548
0.02183401288180107
-0.02575848299524855
0.056751439441713604
-0.012790634470170726
-0.03895663603622159
-0.07877632381883143
0.03361970659476209
-0.007092080620522171
-0.05111606426268822
0.03338892452668974
-0.038670922647834616
-0.030551771990701294
-0.05653255885783141
-0.006446240028608898
0.05101313924409745
0.037163607147430944
0.002001691545749346
-0.04160590180359844
0.01928177916906129
-0.004479403290260549
0.03568103356015772
-0.062132923246708986
-0.03263819357405526
-0.09575683129386482
0.027987890610846673
-0.02585533129564841
-0.037867394652067954
-0.069904123241999
0.005278307536088472
-0.008445155266625062
-0.011821702556272583
-0.030192167336382133
0.016290149435687764
-0.1057352034873619
0.01882474106908493
0.00788009205312681
0.00424454039687317
-0.033241318285248865
0.05272615319731055
-0.015593306574540864
-0.04023748438548501
0.01408903614006761
-0.015027296425194361
-0.0853861723490333
-0.0070042484870406485
0.025846994937158363
-0.05529096469007375
-0.0009737407776156987
0.030938637128730614
0.0012760167618526598
-0.03593073321616588
-0.034053674429764404
-0.04283392936546915
-0.014303415410224308
0.03933111924537386
-0.06407455304621454
0.0059697264546465945
0.02974196930893505
-0.06319944669550841
0.018178827638263444
-0.017234175025265377
-0.04688543530698615
0.04068765286590387
-0.05118710474740067
-0.007717062848309391
0.014709855554176919
-0.04926214651132523
0.055716912542623544
0.01269258619388809
0.11239564961349786
0.05541210950102393
0.0736396446778565
-0.08295828860157368
-0.06224982798404897
0.038125041636008467
-0.09397289231855227
-0.0017716281943563285
-0.0002944707695606092
-0.004101064870052942
-0.06686368574651537
-0.029561876751261
-0.045890431691641795
0.041402202293604154
-0.02535839712801279
0.009496400479600618
-0.022894658778564787
-0.06994318685117472
-0.011423409352031733
-0.021160267231140492
0.02344918775672693
-0.06159079697477113
0.06331507340428733
0.027557910316141604
-0.13394825124594667
0.0381750994507725
-0.058587461457160143
0.051428154113492455
-0.016458202683864807
-0.05234626946916077
0.02159772486416002
-0.038830229475883264
0.014534947236960355
0.04538498790928789
0.014973340201844727
-0.0057763017575472525
0.045046547682693304
-0.04151317539597464
-0.06453681414609533
0.061419822519586054
-0.007004640320204852
-0.043423965358962306
-0.06008584210437558
0.005475263297021055
-0.03338518476060144
-0.017438859981240517
0.05883988543806935
-0.007903513984169925
0.023032662299594657
-0.008907860955803884
-0.020612208725190987
-0.03946109499743581
-0.046963220843070926
-0.027158781558468705
0.0376693397978714
0.016320385541336156
-0.03449305900921819
0.010402907724951671
0.1396107970179948
0.014220298147699026
0.05978521811066594
0.07540898878862656
-0.023921900612234717
0.03397905644780191
-0.005681868358232655
-0.12432901795344753
0.06827685488389333
0.044197578594120684
-0.0038968088372483517
-0.023103587489290436
0.1254142360919862
-0.06749643430520329
0.048744342234596574
0.06871481151597404
-0.005692691223675248
0.09395894110644978
-0.11881077595158435
-0.029366562351412676
-0.06977159024047098
0.03625615034073267
-0.021309753579243376
0.004167130146833789
0.053290939404601834
0.0283338513409456
0.023626385656603643
0.005760981305521559
0.04860453437144427
0.09206930626545831
0.5446962731969225
0.9909099392310485
0.5076595564708093
0.06223003388692697
0.053209869799652976
-0.014526139830491783
0.03475515114542919
0.06523299152641501
-0.047393324038918855
-0.017047561553675372
0.03931600011775361
-0.023606387445781713
-0.010075593991016936
-0.00798774098797268
0.07737053523094395
-0.0840536544893236
0.05797034321196533
0.015490270821730599
0.05843768124203757
-0.07400720277568337
-0.06547334944646921
-0.02658966844691335
0.018597247634611864
0.03357548958585451
0.05819569032359178
0.07693514394135724
0.03763944949037233
0.059964514783929494
0.0028588937238126035
0.04696542463692859
-0.06562439829136871
0.06764721015177938
0.02236971427006106
-0.02548886658538646
0.0038196160326046122
0.05454576417934494
-0.023091937372220674
-0.020467377434991017
-0.11813363162286952
-0.1064988057503311
-0.09203130368815235
0.03345779842678342
0.0008410187291900211
0.07941817001190432
-0.02462511378659142
0.0008752699774189544
0.07835734833593427
-0.01058100999547341
-0.01595033581318625
0.06339932297000365
0.020237681728957346
0.0016299001137964051
-0.020464609894777636
-0.10174478779595508
0.006790110979592697
0.016323170710493228
-0.08852726727888797
-0.0023413753972205925
0.03951417047153288
-0.04224949743679568
0.036123894492746104
0.03828935370934164
0.026819161143105077
0.03455687869563574
-0.08612344927415624
-0.04399557452815675
0.03721295425820966
0.04488060680315207
0.024692657958265543
-0.05149454221421005
-0.13326970652834502
-0.06275307309955032
-0.0535936401206821
-0.07651140197415643
-0.016328793453387957
0.018753188180292337
-0.027347595125210233
-0.008648881326923548
0.008640007891367568
-0.04718362342541921
-0.024030694215942453
0.023437892284481496
0.022023303142721072
0.031087145066090754
-0.08148898697614616
-0.10684267749215795
0.10655746424620048
-0.07300733314025269
-0.04633093570657654
0.01043349625688019
-0.06445678248766505
-0.00046697799193231703
-0.027666408625082198
0.034159714777753314
0.04417617914669861
-0.012478723819124987
0.015003618000764454
-0.06407816942989494
-0.06415017503358182
-0.0198971187817767
-0.030244115762217652
0.08849201511003246
0.05824161878053914
-0.06812883227769244
-0.053787598703274944
-0.024862669647918046
-0.055745592466933995
-0.05105229565735478
-0.008686353595316372
0.06888331381964047
-0.04051040698262598
-0.06615492387912555
-0.06168346829690914
-0.011981522400245144
-0.020584905174613467
-0.05601062255838829
0.06246564723215539
-0.02867721235045643
-0.012090482416834638
-0.1071372072984064
-0.05054273696116527
0.048994249320115195
-0.013709727825027725
0.024997881074438223
0.07758883558754792
-0.04439207339819424
0.016414616836206118
-0.04561974121670929
-0.012034271064844405
-0.004485009486829295
-0.006393625815394568
0.07404963471071961
-0.03682621472690615
0.0738322325658515
-0.07538252989495581
0.15065072044372152
0.008445405673353395
-0.028442348463941027
0.008927114821233192
-0.004833642026529365
-0.03079373382374307
0.07460691782922403
-0.03795234118652899
-0.05328155873895544
0.026287365894495002
-0.002627903854226569
0.12393069085294142
-0.044858876902442515
0.07345142285537624
-0.05789343187153204
-0.014740343487509536
0.006013848657682546
-0.06609598141243465
-0.07681841331265052
0.018158907983701025
0.03750882650793677
0.004978714995837984
-0.018557919847111387
-0.028366821133313454
-0.009818017725240989
0.02496723731497965
0.03851618739681527
0.0510707306594849
-0.011106451953686694
-0.09693568339765965
-0.014484896676698535
0.024098901055395403
0.0008822417974791762
-0.016543227397962965
-0.08688871588544717
-0.03591808790587863
0.051045717474274714
0.01685195872254319
0.05410994676765807
-0.0353798278480958
-0.031232429388505057
0.022671273369194667
0.014437066104349748
-0.07373426007431362
-0.012792963195252655
-0.12364473812063935
0.03224641082514948
0.07176137826763246
0.09174525890388743
0.009020623471168587
0.014124309091424182
0.036074739977073327
-0.016650008849243565
0.014802231693469382
-0.03408765530503213
0.045244634810968125
-0.014577042719474853
0.019444060813295427
-0.006480752096834987
0.06471018320335367
0.05957910634750503
0.006423895435216576
-0.03981212022072475
0.05407486302035641
-0.034865983024974234
-0.043971038047013855
0.009462958863809047
-0.036544330212885945
-0.03752287233163698
0.006814446939975786
0.09779484715647718
0.03678567912326812
0.015320158049638731
0.10557146502740429
-0.07282770169163676
0.0914514744912793
0.04436400575525186
0.10323027169257899
0.04253273869378143
0.08177408454844516
-0.015537496931567163
-0.09207442293918905
0.011409450713949585
0.04457103952809896
0.08314446026998351
0.44990347269139186
0.9284826229897052
0.42914207847322194
0.14512033983291658
0.04324265837168536
0.030346244290982972
-0.02795081357052706
0.015186339734440436
-0.08357201131094372
-0.009820707666847214
-0.023132631591980923
-0.013272111214091602
-0.0050881159245156566
0.030063525713449474
-0.07284472182920326
-0.053174712098406844
-0.02856767111773576
0.03245292656350484
0.020389778603129145
-0.031984376252967454
-0.04440064975525042
-0.0931781445353379
-0.024893024183693158
-0.02085334531598944
-0.11546620974648525
-0.029265035564065175
-0.06164949449461657
0.001078287227626681
0.031218076286175844
-0.005338292986560631
0.01385198953542362
-0.07482350504382698
-0.022971038660042863
0.016280280155596308
0.016030978498632976
-0.041804169188186135
0.045078317977659196
0.05490645814960604
-0.07673333701704398
0.025993201719016736
-0.012037822688765104
-0.07939964392302239
0.05037396248265907
0.0026950880310160734
-0.09916304851238537
0.0903049669618423
0.03474258144846434
0.0028679824154621988
-0.04734917297001471
0.03741829746487188
-0.014963501785298962
0.04165556888363462
-0.02502076470053254
0.009281520153797128
-0.03826874429473772
0.05244174807849055
0.08192145413216984
0.010219546779984361
0.03217805952945982
-0.04559773075390093
0.04063937893392192
-0.0026519881748732995
-0.06396580064141259
-0.05142487457712483
-0.011987087255977032
0.06783217969623428
-0.06281125739139769
0.01249983966025881
-0.02219455580463656
0.028444529083689614
-0.08353421239765763
0.029599734700745062
0.0036610946253181572
-0.00912966896647664
0.0027335962394832596
0.006463835958482592
-0.007435537966824864
0.07441331435569287
-0.024613574416366343
-0.046183743059849035
-0.06858852213838829
-0.042984276181621796
-0.03266897170363475
-0.01924483628877433
-0.012937534412918443
-0.011871478576119946
-0.0905511173123182
0.07266581268744825
0.034371455810865086
-0.031035248349141238
0.0027143191669785566
-0.05229706498084902
-0.01425342343042596
0.05822968562376696
-0.049476116622171246
-0.015412491410331814
-0.008271163469566472
0.04742427318678883
-0.07715194983248443
-0.06740961924581966
0.06526805886610619
0.008389399204955645
0.10577045411548079
0.0033415789503064824
-0.02928501357111628
-0.010204732078665952
-0.06507854187179483
-0.030708783805441467
-0.014911284691179036
0.03176496331808314
0.051845571004379726
-0.014786857665110282
-0.05540983697063156
-0.010713812130541402
0.03077723008113043
-0.0031133551985605802
-0.008961087131268752
-0.03362852251841992
0.00020970653072092282
0.0010286724257135456
0.010234721815935915
0.015648963899663727
0.0818916429840273
-0.003750825994475197
0.09008450028996236
-0.06438637678730952
0.010929885610585142
-0.0034379301094702736
0.009693608345951617
-0.02412798934663699
-0.015607927627453253
-0.11295426336499018
0.08604688138780268
-0.015348896045976139
-0.050492915786252715
-0.07358796013400982
-0.021732867380806188
0.00609402653767353
-0.01916202346274623
-0.020531114362294548
0.012384115916294566
0.03666000916128661
-0.05630606148487871
-0.08643734746281288
0.0827781684121282
-0.04665218062085397
-0.04465349160643284
-0.013924990332152238
0.0908147054938224
0.12299103302121295
0.02246025634644403
-0.0010159089052474066
-0.03203793868204625
-0.029259231015831413
0.03133439382217241
-0.028843398864102976
-0.023025299159068972
-0.09871467048820902
-0.010029544724433495
-0.020677538009670166
-0.03073774086794659
0.03616571218632502
0.005016602352976219
-0.004617454866970241
-0.0007746129785844939
0.06872877803762485
0.03260023783093219
0.012184455512878393
0.016750365776365718
-0.015223688360376167
0.04362447828720608
-0.04081688114589643
-0.006780480316736829
-0.03759698951176353
0.0686703528343424
0.02678251293367649
0.0009583876708029403
-0.08469665041743457
0.03937627954729564
0.04152181068227005
0.01838222750841477
0.004255500684415293
-0.11911879762529357
0.019575431951526088
-0.011385610770569222
0.015462023941492537
-0.042519687880937684
0.006047254539645955
0.040386606065147455
-0.054506454632220896
0.009602977290789048
0.024160056037471813
0.05370001416703882
0.022199739528245076
-0.060082885316430225
0.07049164066019939
0.45573091180841063
0.8828270025181886
0.4534942472086022
0.12172712908913084
0.03214749979082054
0.05706446973385553
0.10105835636130019
0.026307419840776808
0.02741308424567486
0.04108643882962493
-0.03353428693540964
-0.03818984420768093
-0.02897408219492348
-0.03869169373848058
-0.02306685205540923
-0.06921646954667124
0.06460251354296903
-0.031527398526293784
0.0733361167728098
-0.012129067332974376
0.014536682234300276
-0.044955375008261765
-0.021296900054658556
0.003003322445519988
0.01348719599016561
0.0018029844395834557
-0.01420664418469074
0.0015055879888089215
-0.03213643453804589
0.032834714421066905
0.00360111708572268
-0.026353821118357226
-0.10523625855481858
-0.03001353955032913
-0.003873417954507944
0.02782726131434109
-0.015893492632896772
-0.07197652392027117
0.0402682972536854
-0.07619213736950267
-0.032614406564772484
-0.016406314580971054
0.027500854940514703
0.011256280316954852
-0.0032743975441720096
-0.03348145460392992
-0.05032034527592882
0.05015599361789461
0.05506273934298339
0.13161160296407307
0.0371422666833124
0.08118207862934684
0.052691202924157444
0.010531990827112462
-0.05689102621527834
0.009831510207771458
-0.09235184288391796
0.04233974082660565
0.12787972655837043
-0.038673792040598176
-0.043007191811884976
0.13908325259430018
0.03415097442161364
0.009365972758340306
-0.04487104411683644
0.0489098197500104
0.07536066388990319
-0.015437039714109589
0.040649470914374125
0.08897007445074717
0.03506098819223152
-0.10179097617517902
-0.012412098588946307
0.03719210517241047
-0.012173601709730135
-0.043417001916753836
0.029196585954900385
-0.05664813185916043
-0.0032557608824173817
-0.021480627268121395
-0.006498534585005718
0.022540511460498652
-0.039716904930421265
-0.011239270414565088
0.029453542334286487
-0.06319768798290039
0.0934802312578061
-0.09279648223384539
0.047367792354051835
0.005060525191964378
-0.000578597734364358
-0.044772709899165965
-0.012037606582985163
0.022118929860231645
0.05365661571794213
0.08919426129476767
-0.026683292236361456
0.012087641402765983
-0.03766032445837157
-0.01581047385296092
0.05263214964513885
0.01875468598232244
-0.0022141595221875834
-0.02213456669186456
0.040467538811849224
0.0002989794370786594
0.057803345246575516
0.025760065147392278
-0.058002923932615746
-0.09575539588136536
-0.08581226160813561
0.019899912645414138
0.00813068404536539
0.029538943799352225
-0.0013354220744271096
-0.038279153415474464
-0.036734812807932365
0.01243440712599007
0.017513591434970836
-0.013945702268240599
-0.031880288778365774
0.04310021182030869
-0.06234127688181898
0.01346290400310313
0.03263548689862848
0.02923031676779137
0.04448895149754188
-0.09671587503660198
0.01627566387850388
-0.07625345867405553
0.05119577090039267
-0.026038512767551522
0.0489713644037327
-0.06872140305136869
-0.01288965718984474
-0.0867659014028152
0.0318625382274274
-0.10812254275271777
0.10856562935853989
-0.048245753030946
0.0038005583894037405
0.09764606955235584
0.11158615750241661
0.017509764691103432
0.03776047444443695
0.07079574483478927
0.015514778744118152
0.05633004226405791
-0.051158106726653066
0.037145462307129395
-0.07758129412426829
0.01859115455104804
-0.027509950665476603
0.07689904132758797
0.005865512623448729
-0.021631558342665603
-0.062350510741450794
-0.03563256372398337
0.010851440261750937
-0.008484709252208133
-0.06441212573602983
-0.007086097395958216
0.04796039650865033
0.038594305244878335
0.005072904550238411
0.024813031652523097
0.025169850713258297
-0.06688611715990364
0.06196361822336967
0.040757643704469604
0.09320000873487289
0.01132397417122041
-0.06062390575444907
0.029139630982237586
-0.036432399933767894
-0.0064010705671727845
0.04285667167367414
0.0660996862485009
0.05342109359383802
-0.03478487515686928
-0.01886237966231439
-0.02340451331024276
-0.04920739068223198
0.01845345972625588
0.008452447673941446
-0.06557549909692334
0.05427334540682025
-0.033712453380757144
0.08483921617881446
0.012436732341614493
-0.07820101189900054
-0.05227460341273596
-0.015384692501197277
-0.006125723876760509
-0.013091176917487582
0.04970029304334055
-0.029915352754450248
-0.012617241860408614
0.013647541979349538
0.05420542122905131
-0.0654503973828644
0.052125088953537874
-0.06161273822586574
-0.008058341685769443
-0.006262379491667247
-0.02354524708769576
-0.13290739762602935
-0.050326979025019626
-0.01679362581267861
-0.06694204933836988
0.04239127411577148
-0.01245920492221962
0.01759897503612101
0.08792814180823902
0.17360573392394624
0.49092780283696696
0.9480136871476534
0.4689175377092047
0.030666442315884945
0.0469373681786976
0.017680811306524418
-0.018838383915849702
0.02574960788607389
-0.060345024431822006
-0.06311330832910576
0.0008353290249155387
0.050430632547104594
0.06326320048964802
0.01977792859235269
-0.050963923497990775
0.008179562983665359
0.05427887836669935
-0.05959658273323916
0.04703453859914672
0.025119685925613797
-0.13764225505090927
0.005793977290801737
-0.045089909769429844
0.044587012939748066
0.03477924648204736
-0.02168901430852173
0.01751654214027475
-0.03398697487981887
-0.023223538642937434
-0.06784135386394825
0.009292552764131592
0.01498586919095043
-0.039112505656524056
0.11393377561963923
-0.05370465839496892
0.0015963946610218266
0.006792004384194678
-0.08924846794869394
0.008368383201994217
0.028027791926784208
0.04232973458352505
-0.05200008874544171
-0.035660373075363176
-0.018443256742623298
-0.07836882191425247
0.044319331015974586
-0.061920444384336
-0.031456404339349285
-0.04388613449207146
-0.05164374163731525
-0.055846319694567194
0.05334800131966662
0.017329089346701538
0.0017485046227392641
-0.048777978317097716
0.06889151829563153
-0.10149512126403087
0.02197422638421845
-0.037270018815413315
-0.0053256573502826
-0.02959074245378733
0.008460844420728834
-0.011484409610126117
-0.0009586631734923323
0.02501595000836069
-0.052973143166845094
-0.05312639860469164
-0.01589142664048563
-0.019282889564476168
0.01597564595287576
0.048380646646599836
-0.03390429914805989
-0.019405495603702128
0.045214234217705034
-0.01637435890771225
0.07100368268109782
-0.05083633356955021
0.08893563387937875
-0.05764979865695174
-0.005380133376376657
0.02243388569754294
-0.002400003689009023
-0.020041093432310877
-0.1361578801373296
0.011975450922602923
-0.026565207056784584
-0.010713330090700555
0.00034560941135217506
-0.02986190575176458
-0.07778003414612567
-0.07393885449647393
-0.029471106506127383
0.03143343341935806
0.007481542264607318
0.022961957992357895
-0.127610880870024
0.029752657434772352
0.05209176319356301
-0.026932324972354302
-0.06345494444990094
-0.0007427278822538546
-0.05137491466474391
-0.06728224428624412
-0.028860589291173046
-0.027627057016475904
-0.0015521215771712683
-0.025959406880110933
-0.02109210882018455
-0.053789801532625185
-0.03763818355363599
0.06980137062830541
0.06855297330936833
0.06574886757254861
-0.04731360243811994
-0.0514037562941847
-0.022806216767306823
-0.03637624450788351
0.03261701743838626
0.061927602133028614
0.06125760476461737
-0.008459512278902778
-0.06928441538699702
0.031310089920425686
0.04058892645290246
0.038079268574404135
-0.04066910868159161
0.012166214598795492
-0.07458938876478213
-0.05678385584037535
0.02632384115141874
-0.08078367526239931
0.04517607079869132
0.030181072580039325
0.08231295986432302
-0.011530821741919741
0.05646861936712072
-0.04399225003918353
0.10919495006774274
-0.040527222620041416
0.08800303779493412
0.0946945956193647
-0.05350820370876661
-0.06515779057106007
-0.02739158564928197
-0.034709682072085545
-0.024262127290801874
-0.018546472884835265
-0.040054385611633075
0.04116294547764414
-0.03395241807047427
6.868245055420422e-05
-0.08428125143946986
-0.05504799266371229
0.01968230870388632
0.024905525034575854
0.03667917641795665
0.026740192194096308
0.06955219129057792
-0.017066745508572186
0.02710585929652189
0.04835674130350618
-0.006609852382774649
0.03249993828324005
-0.017160348344434348
-0.015263883266006582
-0.04450164406082886
-0.049150010518194766
0.02566659612554997
-0.010928938416286609
0.06047604119646153
-0.005072489760777244
-0.02880877368096792
0.044507854345348145
-0.007441988793753795
0.02706336553656279
0.09441954832540017
0.009070707083103296
-0.07238434922563207
0.07865298699832979
-0.053899970402291754
0.04650997642369766
-0.0697740340463317
0.03054592852183919
0.003070140934775459
-0.07651990242535209
-0.11727319490283064
-0.020379221205263084
-0.050416854892585586
-0.03818644306594918
-0.016561175099421493
0.08613928350227151
-0.07370103173040846
0.0795529827999732
0.04008711077809202
-0.0031240896982505833
-0.03499428646531281
0.05955710474746966
0.015852759209414525
-0.031012272711865685
-0.034049618191233706
0.06001804014366979
0.14737763967901274
0.4238413150821049
0.9776188968048343
0.5482179487876514
0.061681467928454775
-0.05040885868933884
-0.013933280153217605
0.008796993267271817
-0.10026381515834998
-0.04448905129629689
0.11257239244361415
-0.03064814273049592
0.0252812370949174
-0.04150258042505761
-0.018760384713851067
-0.05583961879008603
-0.057892435697226075
0.09602460603590653
0.06143539026533638
0.020059346091542418
0.027924803208988144
-0.06963647164767534
0.05813717108444704
0.06124494804516191
0.033495444059872086
0.04074458926444331
-0.04774289169258438
-0.07918027797836669
-0.0016344141668047743
0.0264696261509844
0.0133982295812817
0.005496439141505587
-0.038961390853657005
-0.006116276791246345
0.07048616293843166
0.04890895390110032
-0.017762777126422078
-0.013282424678151048
0.0013128044106462547
0.02791891997432642
0.03721593625214807
-0.003717339885814792
0.08388325688972126
-0.10176221269328674
-0.0003051163257099755
-0.04444952287796547
-0.009494486680440069
-0.02788805881829863
-0.021916337900595828
0.03449535810461475
0.026222906938748975
0.02655475419691545
-0.05075332382613295
-0.03269236256094129
-0.011310957616409177
-0.042525740195623406
0.06238818456989982
-0.03335355064073613
-0.026938939324101564
0.01591291284379156
-0.09286920094397698
0.06501001421965756
0.024544184793119084
0.04608412506363305
0.054112856580860104
0.0178730993296472
-0.05572171478813152
-0.014476165257728647
-0.07981782322962257
0.04301025614394602
0.05941201780041903
-0.04946492478256403
0.05342030352534782
-0.003673518334155132
0.01183943671447138
-0.024491149259312662
-0.0069050451100831625
-0.005160118539013141
-0.02881075027619119
0.01817970349940606
0.028054287651212453
-0.015944617075995902
-0.016168834858039785
0.007678079557702302
-0.04402593089892343
0.0251698521516192
0.05527160230680953
-0.03732887975349529
-0.036347998101245546
0.058755260026745415
0.05270076820791735
-0.018889135241006168
-0.05065006310083793
-0.030545739433113096
-0.07328835862810038
-0.015236316301715572
-0.033899425374176
-0.06664094363718974
0.05690711948171469
-0.007036953301800221
0.014625023447229157
0.030725347022643942
-0.014127132350221644
0.1260945184463995
0.038780977152510304
-0.03101762417580116
0.03061880315454707
0.04877131835570916
0.008451306358160392
0.045294312688398286
0.015008356011056585
0.09194255657615086
0.09339073619722581
-0.039932040640739935
0.013732121377652002
0.02651985486432606
-0.026387652190801837
0.02749075325671916
-0.006651683233118479
-0.02890902560833794
-0.04586152741228424
0.07718900328647639
0.03560604792616461
0.014939333569901745
-0.05294314270147335
0.020973947787563653
0.005892420804214358
-0.07118125546456176
0.032768046322138304
-0.023104086633814733
0.008865030064736825
-0.012621369593969537
0.0586214115822024
-0.054702909268566025
-0.033754102533824396
0.06397578476127173
0.09021320458252705
-0.03488501227516643
0.047874000695762475
-0.030592476601958046
-0.0214550885214593
-0.04890742124976718
-0.10800201895131525
-0.0234346862234578
0.010936682268949567
-0.07652222691805577
-0.04377046155781128
0.05692226142773951
-0.019401872882551047
0.055750498803011445
-0.06397773285248413
0.012202031588232583
0.021350766060174307
0.01869135308825954
-0.012656761274799644
-0.04320900610767545
0.011081307572698254
0.04059494662726238
-0.060415104397613266
-0.007194050191113958
0.022850261655905924
-0.031213715450225367
0.013448204624136081
-0.03445411116626581
0.01726841236464468
-0.0357129499203753
-0.03425031730758984
0.07837308711617257
-0.03911199783807642
-0.026465487281661926
0.04201797392429894
-0.0011402499609537116
-0.0679419597502017
-0.06892185566518351
0.07108296534859457
0.02162265842788047
0.035582181445688255
0.02137643612022688
-0.014845279561707076
0.04499887902554212
-0.01582752059666054
-0.09533515310824978
-0.06786785644928377
-0.030583241585925326
-0.11219367724318599
0.029708872972439255
-0.00885413184887654
0.0495196289129728
0.011103485174225495
0.012846115108397962
0.028444658109061854
-0.08589347273953375
0.022029854686117917
0.03308106285944234
0.07107669521220873
0.021424816411245384
-0.05394419067955977
0.036340443115905945
-0.023076654581016848
-0.07775311570448326
-0.06126549448490814
-0.019919076996779122
0.013358093323657262
0.036690174671839146
-0.03824109632029564
0.06447121214133214
0.1249843326640838
0.0280342124894115
-0.03604175656407138
-0.023977289065879127
-0.049225063590025125
0.07150639740084322
-0.05527974947141523
0.004739488368972916
-0.048961775373513955
-0.01800410595295996
0.06462851942360666
0.03409881344073189
0.03987701966673132
0.03957112947535785
0.06947005370402022
0.04941890289300091
0.034376368480663645
0.052287917330215906
0.07683555173666284
0.48090708856680897
1.040692814815982
0.4086888158222718
0.10321286520230379
-0.02879321777857759
0.017704454540771374
-0.03014478040137447
0.01887147622525344
-0.009850091631442478
0.0469243184082581
0.026562839480434933
-0.003388127074910713
0.07052301483949729
-0.001685429788936401
0.00416410927832385
0.020014964300617596
0.0710482992191515
0.04408778561179356
-0.07535174685962143
-0.07450311363620575
0.012306676305111237
-0.03503792935788846
0.03903257841954884
-0.05726137236825762
-0.0020122282554607684
-0.06153768705551008
0.123041739075816
-0.025912119440056766
0.014575249544678615
-0.0871995464524793
0.13437697377011526
0.0005541820579828485
0.0369121148970541
-0.037220321583173885
-0.03754032638126702
0.010137029054538046
0.011866119167941773
0.004223917998236814
-0.13120487086259092
0.10049170633352372
-0.023577012933822653
0.07063792969662938
0.05108270844615701
-0.02862895243689408
0.08215751884982639
0.004631383016897896
0.047167082336947753
-0.07189357831676978
-0.05988908871787449
0.010112692668017927
0.0806792148397984
-0.01904856766488599
0.05396901932400664
-0.02298807831243635
-0.032403554575980896
-0.07474316899798708
-0.05563884276041767
0.045167719556275014
-0.04232727965140659
0.07205467285192668
-0.024904133601491404
-0.06636443390132114
-0.027679562569281547
0.032793206650819744
0.057500540387592614
-0.008516598803961167
-0.046444916792562047
0.030979610303904722
0.004252725972966513
0.006586813957497266
-0.08097893895341282
-0.01957940584788149
0.053793391307529005
0.008371347801211876
0.0074781491026690424
0.043468917984438686
0.07547040035993156
-0.03071255547942824
0.027674101300924445
-0.06900258403714231
-0.049907347244373734
-0.05987657910392089
-0.039433455930028546
-0.07085637149912823
-0.03234600383204673
0.1075316504982667
-0.0379974445352837
0.02934970157007713
0.019891002915055443
0.04794768598965053
0.0125412046405855
0.06191586484189925
-0.06565092341933103
0.007861430813545662
-0.0731887078911513
-0.04397280647028534
0.04501666698350347
0.03896982358805106
-0.03242668939350239
0.037649379457557454
-0.03880456725913857
0.03211691946979977
-0.0039365137174814
0.007206290641691264
-0.026941862048207373
0.061426887193724904
-0.016758282306748872
-0.003322223679818729
0.0241189132669433
0.07865719683711946
0.062238846660274454
-0.022231331742884886
0.13682670273522843
0.06678875362795446
0.027973473245999067
-0.0755767343024556
-0.015335312632546373
