ecg
-0.10840776428750579
-0.06515749845525978
-0.050202955412177556
0.03779098983984337
-0.08637466348295546
0.029820847951669012
-0.05513063365779944
0.06826357312866764
0.0006610587815005843
-0.01972571375914444
-0.03011452225887461
0.0054130096081282325
0.07034824784252704
-0.05102557967389798
0.04664646545033442
-0.0622641703128605
-0.05320927423750817
0.03306833975266471
-0.08372944157553439
-0.09986248073027194
-0.011593288465097324
-0.09678505945352185
0.02767284504792571
0.05399447615915377
-0.04702770473434048
-0.031979804647802014
-0.05202712061645923
0.023469461819501256
-0.053921044688101376
-0.016484223136722955
-0.030575769264861608
-0.0665207982586444
0.018735600319332916
0.09108734479673669
0.06984518027693515
-0.06284119508777398
-0.014225077748964693
0.055586416076226386
-0.03753652001570669
0.02987584082446634
0.11740233530059292
-0.051785698763022615
0.04594949405890963
-0.06216365334503329
0.02658214777039607
0.038707618867314275
0.01400510023086562
-0.020043748087990962
0.05678056463713212
0.009309507827774201
0.002182553325288499
-0.02110141676961611
-0.018516282723494242
-0.04773871040898045
0.025423646359321442
-0.006458700075474691
0.03601683542119256
0.009325263561807195
0.04492483221810823
-0.0035238438027862316
-0.068072666719479
0.011675800793219011
0.04385805882085389
-0.060428293131491756
0.058950056389996175
-0.01625214523976155
-0.02819242062625098
-0.03797826942225485
0.014306371308167013
-0.08493742516624196
-0.04518197257478379
0.07533532019045644
0.06623933175823676
0.06836875756386881
0.05601591299734202
-0.012998444854382632
-0.08580593001299713
-0.0002739024590889906
0.013209076394529418
-0.08136830268748929
0.04524105612587373
-0.022163088647508336
0.05447648199186324
0.05452558948510721
-0.0801682069183879
-0.006675250378451217
0.12666096140570607
-0.023825827068639317
0.10987332867263387
0.13210397635964827
-0.01381641388794716
0.04973419750298397
0.002445111465468063
-0.010312992227665355
0.05707772014328608
-0.07288786635939776
-0.05179491928349415
0.03899990959707423
0.08913846794795362
-0.020927353717093363
-0.026304218836698243
0.011152046219290728
0.12532049353547223
0.01373779592049026
0.08058493864022742
0.04034048479208449
-0.031234291163542278
-0.023793126696901336
0.08090586067139276
0.00935353378661177
0.0251808237774179
-0.09336386217149915
0.004507612908985534
-0.029427190922059643
-0.03387849318022811
-0.018954661769696943
0.10615895730565435
0.10624336838950883
-0.00013408886603267435
-0.002283272061790788
0.1120585788536081
-0.031171330006623893
-0.03196949843041642
-0.020168302587530856
0.06978088599063197
0.010113992296608079
0.04041897447807548
-0.04444711585546016
0.008946923339210305
-0.013209324771258864
0.07149721557944816
-0.038272850199853325
-0.18921563287042942
-0.05020786532167071
-0.01828153475777641
0.02629511620111495
0.03794537453781841
0.0805231693495057
0.03228703362953629
-0.036214782131545144
-0.0845185298845549
-0.02164831435973735
-0.04069139820419643
0.0027669462040982654
-0.059083083605466706
0.08035734279914014
-0.009365747207607194
0.1525605140747773
0.040536229061489945
0.015032160309271013
-0.005418157295831519
-0.12335892218276634
0.1302293234935293
0.5030412229034614
1.0296396105938785
0.4514035660263478
0.08723962551123685
0.08624527782590935
0.01491537944614335
-0.07590042310458624
-0.03312912812753623
-0.017013241605782718
-0.09479510541112168
-0.008541958808956565
0.0032598671873715953
0.01235327237296955
-0.030170528654471552
0.05661196442998683
0.013127499832635118
-0.10141619363306531
-0.08586092159255906
0.030390400626618155
0.019972264274235263
-0.022763809569539484
0.05508752562320325
-0.029436803332220342
-0.0348826679965151
0.0805355140735497
0.028227429764763536
0.012786106637830039
0.010425417861712522
0.006482875005128505
-0.0029693314603922824
-0.0384347851120037
-0.057208781931282926
0.024069057046204656
-0.009178202992670487
0.03790010844791107
-0.022375442386209393
-0.08293638828589221
0.036515420692813196
-0.0061917824556439426
-0.03507932207482898
-0.04282346217152617
0.06158909129071793
-0.021054511349060487
-0.06498536850541152
0.011710894520216222
0.0032260576462549064
0.0757961817864412
0.03294257714478815
0.009774065610812073
0.05136415314204501
-0.014713503172777692
0.022565587743472414
-0.05072711626494641
-0.029530431276428667
-0.09909842165220026
-0.01852969408192279
0.009419953144425449
-0.040649492669911726
-0.0004454543806298892
0.042522017065430046
0.034582497510943624
-0.03310613306347442
0.06521568827488193
0.0977860493565263
-0.043327488615072074
-0.028638958658422205
0.028668431547031734
-0.06595078162583283
-0.05703405905914404
-0.02252745948286603
0.017115395492277318
0.02287677987675235
0.07353652660305504
0.0041063994150805656
0.060611136580894925
0.007770147488853577
-0.05856935208522777
0.05604125081775666
0.010450947394194068
0.12537863069962793
-0.05427244419513716
-0.039378604533536025
-0.04387820267548592
-0.10360175965257656
0.08372150074456267
-0.04572966516921141
0.0307428177730721
-0.048207319865032655
0.07340653016636688
-0.012393242384762403
-0.023439382543024107
-0.00020719805763558518
-0.06622568238652514
0.029013087581947962
-0.03785042599178162
0.04446419958265793
-0.01725320514993376
0.0023844073997367843
-0.0027245894858147135
0.02260589224316093
0.039858801772577584
-0.0008931187154523894
0.06929480521911713
0.0850023712269074
0.004132716903929462
0.09693915351273824
0.031118923974283393
-0.03287736128805802
0.011646137479280848
-0.022008125644865758
0.0041345187927264914
0.019135700754700308
-0.04454325969462924
-0.012000311260994127
0.059799306375637865
-0.04802367718887626
0.008480887938863297
-0.07614869900322702
-0.0317304925520439
-0.019055875000802407
0.033567456862472644
0.003565389207702538
-0.016169957957555128
-0.054399989105444614
0.014702238709121573
-0.031889047762206864
0.021040489243037405
-0.07124502544327438
-0.029277525699641566
-0.028217830166303276
-0.0864172784470315
-0.06169442904218833
-0.012094180550973721
0.007037027010448974
-0.07278497512949779
0.015077331518361978
0.1080483501538162
0.012614255265027697
0.029583546407435143
0.011401271994217742
0.018298941577189375
0.0680140900616463
-0.02994001795541007
-0.031824351624619
-0.050579551199552056
-0.02865403219846349
-0.008293681770444586
-0.04726436116117691
0.005680830503471073
-0.0007270726727167659
-0.034867945686921024
0.03589043224921244
0.06262179289777856
0.039454648865389776
-0.0050009804884867054
-0.05831390363535474
-0.12270511992605451
-0.0756195750366809
0.057966263322660375
0.014785417555898309
0.042115912511288885
0.0690769016554206
0.46918321713140965
1.006026852564612
0.48088583668335017
0.049526976187660846
-0.0119762424520011
0.0073901428953203445
0.014437486971171858
0.021065508301495964
0.03325209181460516
0.04826551632143308
0.05876243521944984
0.0255108052487467
-0.021687960769665806
-0.0005969036325933502
0.029072288190257367
-0.04961436376736161
-0.05173844043773036
-0.060455834634984766
-0.010446372098727164
-0.01503558254758635
-0.08890127274527074
-0.07179148230678543
-0.028451798774147816
-0.015059243526266412
-0.03557991432222201
0.024288401747620286
0.10226211927296419
-8.289310691419818e-06
0.009655515156957027
0.008027563944550946
-0.0382432919658075
-0.012028038783475756
-0.07302844692943776
0.11839725202393309
0.033910597304574235
0.0017136293688037214
-0.008177669118757143
-0.014069088579283854
0.04133751795440624
-0.03652008071683673
0.01458884164508603
-0.04040236833723376
0.04257943362106221
0.01625943207047683
0.020257897762200744
-0.09933534870922416
-0.05928648720068186
-0.006647392998417348
-0.0193619472824855
0.053464687448422914
-0.0037588882230368673
-0.04558302188613049
0.02938178639423677
-0.03984526454914931
-0.04986683261386407
-0.012837300177058641
0.03431575574100703
-0.06299664404053988
-0.031759057460624955
-0.018968281727304807
0.0356319901194119
-0.05404789433891293
-0.01623601700301424
0.05754126024436887
0.05346828760385286
0.025173493319034845
0.04980455827156105
0.05166015714124175
0.009702385219435061
-0.022036892940313746
-0.008332780949632197
-0.023565763249367433
-0.018815886702151754
-0.02033701941606998
-0.08261516286690479
0.04633534749032076
0.028112055155777867
-0.02837553933558
-0.02691379548303885
0.09087087896755817
0.0352930772190458
0.10735138568148771
-0.04009989412434373
-0.07466671279316878
-0.05372729868562202
0.0538047130177573
-0.021459873825749348
-0.023828021106603533
0.019842205052219758
0.061583691681353685
0.012302563238690967
0.08445354589913276
0.00476490086302301
-0.01598862572829612
-0.02094828074064549
-0.02117532681818092
-0.006110717643627103
-0.0015850239726456494
-0.04984633509038594
-0.09887747759358062
-0.03449002236086034
-0.007650288350952207
0.022372105929486363
-0.015286642941002791
-0.046980979075996486
0.025421533959929382
0.03614341659834885
-0.025522551610563035
0.02418015817659081
0.059311375031442216
-0.035761012539807534
0.051398046209883745
0.060699309277137306
0.040716024334470476
0.08384102816805794
-0.007426603753966792
0.06593393815951684
0.01721468855517043
-0.06244268746297236
-0.05982350008550146
-0.0029408614963974504
-0.0813888954118453
-0.029339018440202976
-0.023610921649996
0.017055994233800314
-0.04148137327075982
-0.026942168395706803
-0.032174662035396547
0.06370749477808134
-0.017838434371442766
0.07819930921822549
-0.04193324274815555
0.0027502824414054657
-0.08399794882848545
0.02818944002701318
-0.004456908045315989
-0.11436215666868169
-0.08283926979353394
0.007421515499107724
-0.04098051139013672
-0.06490381655486085
-0.02034154752370801
-0.042654807178278374
-0.05465964837902448
-0.011594620714186767
0.0681246718009279
0.0008135700963662215
0.04242051214366724
-0.0073254326263598735
-0.052556740302643824
-0.05242878433554598
0.06322257413435671
0.010902407779831189
0.10267093677944371
0.15179692719099552
0.557525904127942
0.9932205156569764
0.5918691122220977
0.01972799317511935
-0.06796767164806677
0.01600208304134301
-0.03793895650900189
-0.019139777691947427
0.010907290198845104
0.020874067948573202
-0.03229583121431902
0.1016949148174145
0.04649490266629382
0.07220073480218764
-0.07859211754466608
-0.021586582425782083
-0.0248690105780999
0.007217604981327979
0.004966794985848734
-0.013944672846774817
-0.046624879821459936
0.005696562028487787
-0.043389975716690364
-0.016209472431991206
0.026894776066354265
0.1201445433919574
-0.051651465176149686
-0.007125081693085281
0.10133222569581457
-0.08330827579397562
-0.034155395009863136
0.04304394481265198
0.017862631436626454
-0.02393350783431701
0.04679241134148185
-0.010798451325881017
-0.04690641337001269
0.054740542540926855
-0.00663313247666108
-0.03864903580260407
0.015563006073672751
0.03034664740935584
-0.027953897878863373
-0.07236082242678576
-0.022076958834026838
-0.06645797983114682
0.08334583450784666
-0.0345624224831499
0.03863370953171283
0.0674498295944729
-0.022408135289104958
0.00014930037231327103
0.010034301049122665
0.07114882323808866
-0.038503775632256584
0.03803043805979446
-0.022871928315566094
-0.040474658352713355
0.020291960548081796
0.058951897557856396
-0.0229661664457727
-0.009786019222402895
0.025334091176828628
-6.018333893941674e-05
-0.05181962404794922
-0.061327539021015065
-0.018689292833959828
-0.002983845688409551
0.023090385577894102
-0.04656963609900713
-0.057950156847072755
-0.08459070967088161
-0.05388623558422565
-0.06595989488181499
-0.03078880929435618
-0.002060467073828814
0.00949003072599146
-0.052034854023514314
0.02274537307211205
0.009293344989778012
-0.047939690288739345
-0.08169199268397453
-0.01495661032856889
0.035047703333873186
0.004859661908374513
-0.027160938197084462
-0.01612933668223667
-0.07082508116260831
-0.0346869003014929
-0.04403554611570537
-0.003858109876343269
-0.0394879835551275
-0.06810247986696095
-0.026329194925051425
0.012838054039888358
0.0065179145369559325
0.01172158756643573
-0.021388341231234932
-0.09847261552411236
0.05436963223447105
-0.0201106325506398
-0.0078624525672919
0.00966226300811658
0.05348288659117137
0.06624371744366578
0.030964783343582176
-0.022032783737067723
0.05065522015844907
0.02327648842269004
-0.07276824222281922
0.012328547796933938
0.029487369589184843
0.057158599859523644
0.03543327596827926
0.03305059360642115
-0.06021600818780686
0.04848596251418973
-0.005113612265694144
0.07821614702547869
-0.057254648447974336
0.04301771273672991
-0.012281590093443722
0.05743389536661704
-0.011298227563522285
-0.03233343590680988
0.020268037068354568
-0.025435515057533376
0.05412067962060868
-0.07066118568313948
-0.03223481575045874
0.00996174878523295
0.015984135308723925
-0.012032878596652318
-0.0558459682113979
-0.06018174445685979
0.039692764399773164
0.058157121191940636
0.0558186601640783
0.0740300175715228
-0.037564388720824494
0.014680931895055843
-0.002233919781815394
0.025271979547061563
-0.07000600630257836
-0.051452758991157733
0.08538752250838977
0.0668493175112852
-0.04256198635298509
0.09421692470659362
0.043724036352599256
0.0120881804607429
0.04956680202742492
-0.00752563741137048
0.06731881133974496
0.4681708241637873
0.9924191682873708
0.5242962025632858
0.1554855890372451
0.01796372702352645
-0.07957586972839392
0.008817085425376568
-0.05557292571269447
0.026924398035788305
-0.004818845383422726
0.00802801294683912
-0.04197296470045987
0.025078537889277774
-0.0035947229252196304
0.014863492959006777
0.05825361987122161
0.03229563039354335
-0.0075622654508640825
-0.005440745988417015
-0.022625809015898862
0.003847311435627933
0.014456258852512028
0.03357651580864568
0.03286745279960059
-0.028648867633277803
-0.005559628879268282
0.018495161792380168
0.1175705292695054
-0.011700737086403073
-0.06655986065256968
-0.05025121001800684
-0.0053054151635837515
0.01693883031087817
0.034887744332865914
0.06171140010090447
0.07399105726675582
0.025675690010126175
0.036188328205670146
0.04245843098045887
0.07784430477755505
0.0661681714307543
-0.04580427099890671
0.022235026437130614
-0.0065246043855735625
0.008688830195581027
0.011048239600473929
-0.013396654762073357
-0.0068181929326084
-0.08940541964976492
0.040286226174105155
-0.03804145134971877
-0.02644764633229717
0.012990759557797153
0.0035658564596006193
-0.01872682437248081
-0.07215946511042828
0.02363805073415706
0.0897329626529687
-0.0462889221473419
-0.09067973982604594
0.1307862922115078
-0.02044898833058649
-0.10797414131947447
0.05247395621404164
-0.017652241441644248
-0.06560866883482883
-0.06272410878660212
-0.08670948563829821
-0.03686582100055335
-0.019381441489398805
0.020057568923615553
-0.02272819664273136
0.02043386350940693
0.007658408543026608
-0.057793236544418404
-0.0045187896547720496
0.053428465406714754
0.0721144238048453
0.005456247167696541
0.028234303501916937
0.027071133851806702
0.03061618146438006
0.08899084422095138
-0.057429180790141636
0.04691355117656107
0.04507087495813553
-0.05758370957434569
-0.05336332745818617
0.07584657928638568
0.045776007871515194
-0.015297883731672136
0.012141936883437999
-0.016423391366897376
0.025801443170243063
-0.05768050929863392
0.0249447468773316
0.039027719622011806
-0.03930131078264662
-0.002016023680612256
-0.02894876995942888
-0.021392851605552283
0.0051803135724505
-0.05895995842918866
-0.04958437116400933
-0.06808235948457919
0.01501430628258809
0.015248528993332467
-0.07184462385938384
-0.03653654866039407
-0.02164246299848013
0.039745901096340706
-0.05162709940934856
-0.061395346902451686
0.1201325317453415
-0.09903129185652726
-0.012902493798033612
-0.009829008381387325
-0.06856417308857399
-0.057053170327883054
-0.04898176087399769
0.011535262220573321
-0.000257408317356348
0.033995869087565786
0.06237638846137981
-0.030858881330567123
-0.04931088846972154
-0.06155037651172826
0.036595024675990705
0.04373635530495837
0.012513013976213606
0.04776747874349993
0.01423578987518385
-0.01813258228230528
-0.07397669926420862
0.14972662624341032
-0.030436375738925454
0.020939778550280924
-0.148924312451676
0.06630435825925522
-0.04296754883637314
0.012113280269504256
0.05151985166677969
0.022732471237753314
-0.005434651601772942
-0.0026349384124148218
0.026891119116122405
-0.012429637345276483
0.028756215611586214
-0.05541755939380625
0.025739524370808682
-0.043541306349548406
0.050949546450435805
0.016333470762280138
0.04057459180333005
-0.02972768848987986
-0.020213269267457513
-0.040461093994764906
0.04316911865499467
0.007450066232328126
0.011318009601824669
-0.04631264585833195
0.1365243852710082
0.4109853585606082
1.0080303689771393
0.5073658811541527
0.040941562073927455
0.090935322786971
-0.008197275881177335
0.04283424730124481
0.03748466409185339
0.004908872787168307
0.006189067069467887
0.006467735772334952
0.025626968629343917
-0.020008320904783494
-0.035625649561790325
0.00697566160278525
0.1150900273431481
-0.03431656380846346
0.03276627258854891
-0.058943357360345096
0.055472439832286106
-0.10313779760553149
-0.0029724859011712097
0.034135404681642854
-0.008690030974713143
0.0181700118936008
0.017739342888210666
-0.026875282871210687
0.007077864969319019
0.005108635204813503
-0.06104617067177999
-0.08711975070447348
0.06819303458123975
-0.0605448481214099
-0.02440227076116349
-0.03426149133452996
-0.015239206495766211
0.019785453477320077
-0.06430356122544767
0.03975887206710127
0.010222642261274135
-0.05644636424093637
-0.05195060011347274
-0.06585182528502774
-0.05832699483697328
0.027196481031681843
0.02979701621894773
0.009373202508238287
-0.027131021054992578
0.01938869170798914
-0.0004954715221963485
-0.048375930237436165
0.005648884715405064
0.01682291202658464
0.032393636876473945
-0.04768729085649617
0.10777173245996748
-0.013690904588085938
-0.08905236028676894
0.09411896189523615
-0.017321783955605834
-0.060008369288970326
0.04239667324870684
-0.011660732222964192
-0.01582003504026709
-0.016289174157559077
-0.055973654846797706
-0.012311777558990915
0.08039026846170626
0.09440701771199232
-0.04617241178905588
-0.051613322573959224
0.001638708581560193
-0.015265945537824186
-0.029099368224024588
-0.0332332402450091
-0.005945114277629948
0.08413726299987484
0.0448121248104327
0.07723779525146739
0.012327940492677
0.01614974977680322
-0.0203040285168885
0.08743275434782424
0.008993257552016763
-0.0025882589020030655
0.025332931886082467
-0.01069430851997249
0.06677089655592108
0.030765578685883574
-0.0003907376315233996
0.04630876089208075
-0.03336411934758958
-0.011161925235442972
-0.06562042976417758
0.00788953539793944
-0.030169898826388798
0.0077810890459398575
0.10896012853250686
-0.013773892920692683
0.16167677454047844
0.04770867458677034
0.017984152901728393
-0.056672589251688256
-0.019399754020060955
0.015450455434257701
-0.03741153655394175
-0.06096275131635487
0.01654162811581959
-0.007976588553505635
0.03468829073042284
0.08913345136169688
-0.07258461458985942
0.001775552266423381
-0.0031509269039376704
-0.05792428565075554
0.02718019988776421
-0.0042941190731114525
0.025238086375894593
-0.03114414873707147
-0.016252040363716816
0.04247272859922698
-0.09177152496163232
0.04389213451555139
-0.040544552665316265
-0.0018520734118216379
-0.08771117540195998
-0.023562896382262027
-0.051763370600461704
-0.09934255400718037
0.098839125171553
0.04085785832751701
0.04977697028272693
-0.021823715475747858
-0.02031714341620246
0.0272801811148429
0.010037226468498132
0.03359093884356225
-0.02045062413018221
-0.011867821162540476
0.05183331770989494
-0.008216343179010342
-0.032186087603343454
-0.0017683705008534657
-0.021526483851207937
-0.09777932811006357
0.056222306642372155
-0.04599106848568434
0.04751096675299633
0.015826580423754465
0.034067347704530036
-0.1080654121412048
0.020524144550998276
0.06607963826521737
0.05854699358580535
0.47591345591951195
0.9742252605938595
0.4902403503876646
0.09905922704032485
0.04328162090964484
0.1039303581140672
-0.004377936214648479
-0.031072325193562997
0.04432459456454446
0.05330748713083318
-0.026193650424952804
0.009302931445896093
0.09871501759700957
0.11756385198977695
0.025101223864035044
-0.02289083516030344
-0.13921617219839316
-0.060953734526195125
0.01692546855100285
0.022248875897662543
0.009394146049257705
0.08224605833351908
0.019370778760682005
-0.02820070406618332
-0.05415995346731323
-0.03154509511916592
-0.11574411527877806
-0.025873313284124157
-0.04731252872568506
-0.06630572682418735
-0.036783467442105984
-0.11196967190972229
0.004269886513887606
-0.038096493498759765
-0.058916917347775835
-0.018114502268297417
0.06428040058839532
0.015309351270551795
-0.09473034910619887
-0.024647061919169645
0.09656456571362185
-0.009443090169557362
-0.005752894144875061
-0.05574244579060758
0.05751741237348196
0.08238631099673582
-0.06795081903568298
-0.028916352066408375
0.009204505147469004
-0.013814769895454701
0.05696725086078661
-0.01882197345670091
-0.008147347107674192
-0.06427680696470729
0.015103398172744848
-0.04695136684082256
0.03565129340334251
0.054742418664374175
-0.0443165455794379
-0.012463710271908901
-0.015976594781547917
0.048919087219074814
0.15635657450459509
0.0329716892483306
-0.016602264199533232
0.0026587826702043063
0.044364537928885894
-0.04511244901804182
0.06844734090676538
-0.03365089273488697
-0.018885477700898
-0.037908377597191185
0.14800004861567242
0.07264660119372003
0.03258134388862986
-0.0005523050447267307
0.011625699161101974
-0.041224273104894314
0.0924141032809207
0.06911438062158037
-0.014311987803574767
0.01603670072440162
-0.05472384300256072
-0.061431279171268595
0.025496950182264756
-0.01653200108994798
-0.0754345831573765
0.049681981653918586
0.05308303698640391
-0.0036480893878734263
0.01519677952288806
0.012138890787500948
0.04127430775745611
-0.010047844003784298
0.0023751289473924416
-0.10994076208894149
0.05231082863473176
-0.06407682872348258
-0.047090430935831026
0.11869340713407615
0.01407835346128454
0.04946924940116554
0.042335678826801636
0.06069912423829661
-0.0030322409476659564
-0.036698312197269316
-0.005434369973926156
-0.010020323328947303
0.013981787776613781
-0.0098269522890937
-0.10683623010115331
0.014998804458999766
-0.05480689337218902
-0.035512266323321585
0.014370074160208295
0.07997779941127625
-0.03369605579947282
0.0249061708135767
-0.032234521531235585
0.05963886612031921
-0.0595883540880883
0.025500058397694023
0.03871649029404203
0.009651149789508193
-0.09333681686365819
-0.010600876690843539
0.034578098478580684
-0.013792619284323435
0.02721514818526738
-0.04719678648281054
0.020064134550928012
0.09071260882971993
-0.003316414783951385
0.02947688629185069
0.05009172250756269
-0.13981665782835084
-0.021010849436359322
-0.032176688063356156
0.02160928584526913
-0.028832388272096277
-0.029565398596585465
0.06106706643631293
0.07012108395342319
0.08024062892819898
-0.046148198190456
0.03797595375187649
0.05238345408068809
-0.032274622597760594
-0.04537613679393628
0.017763599793683606
-0.02118136395077427
0.039927238761474006
-0.00713118014245852
0.022226505499926608
0.02508986379644962
0.027387319375928434
-0.0902180101859229
-0.05470735092382554
-0.04284058012803627
0.14581502536724178
0.472176268340717
1.1250969597277443
0.5030911755123468
0.05879513127190417
-0.004858743832552868
0.05275609139412016
0.0749303285159915
0.034073547741832334
-0.10968520360625476
0.0014548060296690774
-0.07331371421099406
-0.046928109755836
0.029629548529999813
-0.13121016681163697
0.05443700536012335
-0.01835291476916084
0.05064559476087321
0.04457160786808398
-0.030376698729488172
0.09856849922588565
0.017205255469302735
0.012159589011002588
0.04437028706247649
0.047150043834891
-0.0016639060049713072
0.07381225293111025
0.03393656774002931
0.008949444933397652
0.09932187969708774
-0.01846518493014516
0.021801030042641764
-0.04250813830786087
0.028913527727752242
0.06137763253254126
-0.03913074201549631
-0.05366067373843872
0.053564140951996936
-0.07705182067425924
0.011668607890110889
-0.019949729747165308
-0.04559029750195799
0.004008446386508795
0.0001339602448865183
0.014315317499371847
0.09446494391414323
0.0017824074021055587
0.05560746655027987
-0.028117581934258007
-0.09184164127837983
0.022743530464116358
0.03947237812821129
0.015637572377724188
-0.011331489054034062
-0.009627363212360142
-0.010320993391026666
-0.03366527184082981
-0.05922507485465134
0.09105606260944615
-0.09042772475424886
-0.07243265456457763
0.09326553159121168
0.004667715662481603
-0.06866952706650807
-0.024282376744140244
-0.06061665129553289
-0.02193508994871963
-0.12487504463887558
-0.026285260918622644
-0.0063772144911687645
-0.0018592804493432894
0.11120302683981571
0.007574584339398772
0.0208425487955987
0.020728544700918505
0.031002605573011568
-0.018265392318723733
-0.0349316933778806
-0.07052053930438736
-0.009857875940144221
0.013135618297225593
-0.019009024054809
0.020962774817990762
-0.000648041077541542
0.09098617616816441
0.08144849225684357
-0.043870333153859145
0.05383216674354832
0.03760205128802093
-0.05043725237535576
0.0251203356369018
-0.015136676059028893
0.0657501517605854
0.019353384000371038
-0.0019579360450349866
-0.11142849247561473
-0.01878437699153772
0.011391267950845463
-0.05098715681647264
-0.01142120310013352
0.011831741991885239
-0.05026375406941759
-0.06922675943971097
0.09673064389106993
0.10399980178560471
0.0020552101254463157
0.006557622169095157
0.03977555896359271
-0.007976881735659991
0.05206809263764167
0.07199520042910344
0.02406709841367835
0.039238114340466895
0.023951305133137424
0.007764064693958421
-0.02318518683071083
-0.04492053129942503
0.035265897616139595
0.021603683707567937
-0.02837672043202043
-0.02382767818996831
0.06178273197598061
0.09170085315370341
-0.009525063103722836
-0.030988619045834793
0.038742593445937445
0.04011812514338153
-0.01751689937907395
-0.04982393732539069
-0.036469083046059086
-0.10056202789432037
-0.057489473404822744
0.0032992716631514494
-0.04427780504278955
-0.027953212047028393
0.037725582135612716
-0.0007429234981849457
0.05621527495006334
-0.005599271756401728
0.0032580895220366383
-0.10174767952944935
0.07224413041547616
0.03177937980151297
0.028373592313234483
0.03528568846971735
-0.06886803268183307
0.009223732972645515
-0.04483471266457151
-0.06805403478740728
-0.07398126218898514
0.0335353647468195
0.019809315308557816
-0.04869601609576864
-0.0754792352535766
-0.07931740470556098
0.04635504522778082
-0.022076887313683433
0.07418171370022271
0.5027210793150945
0.9633070388456866
0.5425171081891246
0.16574954352299665
0.013346847236814965
0.0970402339808161
-0.05218222557653554
-0.07008635414831096
0.09954420625168875
0.03649592743948517
-0.04515131115948392
-0.00509442773696429
0.0012051112325131056
0.059795100987815535
0.04414138957998574
0.036917849414270884
0.06305828788572786
0.0143750421024649
0.017312356371314407
-0.01017964724403041
0.00042520526783954807
-0.05019103298240736
-0.0461925360500271
-0.018952268026896923
-0.009991544804430971
0.00896423066846528
0.053786724705280134
0.060854270257864974
-0.012613581142013927
0.03163460505230288
0.08226560016296297
-0.08833591682823838
0.009905812361934843
-0.01145215330246928
0.06950595330389414
-0.05059285079429156
-0.025432483829565474
0.06838858589225826
-0.04553196631840682
-0.0965887500938706
-0.03580412950513354
0.012929032590642143
-0.012017926567739036
-0.0577199644636133
-0.010701932492565205
0.07163463409154007
-0.05901385444559957
0.01060008684187216
0.09458526686379928
-0.0961708107103165
-0.02444730074365881
0.05169118132106596
0.06003545448860062
0.00167448571740087
0.0678792225846537
-0.06416615293617305
-0.09706916857598535
0.0072233332361692
0.05551408276763908
-0.01520231760285132
-0.002766556997726023
0.02211393268937885
-0.0010312178240878352
0.08438546848388001
0.004817669417058463
0.06538843479907812
0.017950858817096908
0.03332300016058828
-0.03710854324536998
-0.018890706841262758
0.03161800661277577
0.02894748534404959
-0.0008708955484826825
0.03370164421777255
-0.010608748386956402
-0.04268320617829664
-0.03201138236682808
0.026202110698776506
0.04182729773162478
-0.004902998493247386
0.038154970300527564
-0.05052203191567513
-0.014254697520287365
-0.03190217708547906
-0.042441654046648444
-0.10971516902024266
-0.005186551755173435
-0.020335010487697
-0.040296880905814916
0.002564765926863225
-0.009576671400337716
0.0024128013292371016
0.0017520622396689418
0.0836473266182462
0.0036138833089420404
-0.035572389316887804
-0.009899603835391249
0.08453194871531224
0.025507001782958935
0.09430466636835151
-0.005128331287321739
0.020064390904651928
0.029212135344320763
-0.04115468321063057
-0.014258951695184026
0.0029262103116039695
0.08331345628834112
-0.009254602713078151
-0.04827623781742958
0.021487336932814103
0.03571559192639415
-0.050201036570096606
-0.00885421898370118
-0.07465938156037498
0.09301223389303669
0.03127463667602894
-0.021546620701710057
-0.042750326764895284
-0.060733373071385266
-0.027087672218863747
0.03952829463555721
0.015110310359192412
-0.047610187198986464
0.051812289381142386
0.026639435249252347
0.1416248660326461
-0.006051527670357171
0.004641737642879362
-0.045624118064650145
0.08747130392738672
0.07761151956464861
0.05099879389524347
-0.1006557743523501
0.01022880662368765
0.011175944924508173
0.0075581883529598735
-0.1336795125892974
0.009197336060789608
0.0326135263590996
0.041869153071692665
0.015499582769894877
-0.12874706872650973
-0.00011925086474826087
-0.028537413030678367
-0.06944195520628592
0.056881947799661395
0.03858438979182793
0.039571457481225626
0.04177455553186473
-0.03952025368573712
-0.008039172993846716
-0.05023295601425041
-0.0059846408091967125
-0.08361219753518682
0.03940359459673967
0.1652258257848171
0.5312888462535948
1.0094025282958725
0.48596691081191984
0.10532234115771438
-0.04831502063833914
-0.02317432263260975
-0.003186499303217882
0.04114644924690208
0.03689859465973551
0.015659365526071473
-0.035716991603210596
-0.08607317606678253
-0.0011480472455277738
-0.030168645548231177
0.03101235663836964
0.02495394758587161
0.025193357806609334
-0.020281991640600235
-0.032203172290000415
0.07180304777824531
-0.054391823571725895
-0.016699389937386174
-0.04860167428334747
-0.054676186248707626
0.0068418559627418
0.07489595829422044
0.019236046730249614
-0.0374301344344273
-0.021618007916064146
0.02447100584997945
-0.031048063636807222
0.09174014810104089
0.04402175996367631
-0.04954719050633894
0.07083262751057484
-0.019047264008673136
-0.051232805646843384
0.09483771040744259
-0.03492959762472014
0.03595628937759067
0.07193942841271816
0.04227560312374362
0.04921727110399593
0.022296285215879244
-0.09687636677031192
-0.041419969334035654
-0.015946186838580234
0.007175256965079458
0.026385831923067867
0.09900718718235935
-0.0323986625690063
-0.04345176095972748
0.07945426797531946
0.08200009899332464
-0.019419715921289563
0.03371154107914221
-0.049977603346907824
0.03778064948245238
0.00012588370326641296
-0.014192845795840583
-0.029386584392760758
0.012315395584496918
-0.030240775633388096
0.011307734707568991
-0.08373200435689482
-0.008092350694880358
0.019287717088718553
-0.004389183860712732
-0.01340506363386137
-0.034606579208918485
-0.0224594132276512
-0.052804778098135066
0.020371684597147957
0.005363578546903694
-0.0008716446675484263
0.09016921467214772
0.05465119561979115
0.05694574544780469
-0.014975163452383259
-0.04319754995750017
0.034064670930438745
0.03333280354175082
0.052166054276946275
0.02592323739817955
-0.01528559655203391
-0.0261440593391139
0.02091916803532241
-0.032733035445048214
-0.01456918683638134
-0.045205300824514905
0.0064187940257771905
-0.013807802035877665
-0.04250978053884018
-0.004312454348194589
-0.04246265771128099
-0.010114430295455383
0.07328294015567224
0.05808045646160329
0.06001298621047673
-0.0008726889267876566
0.017228941507889672
0.013469072586978523
-0.040559201038467864
0.044776587656036926
0.04277113263351978
-0.012065300098550481
-0.051320754199607625
0.004649742976460573
0.07928260271785276
0.02540218596088217
-0.013276851808393653
-0.04140601269726728
0.022963819284152347
-0.010449646713497886
0.01553026441190473
0.0767684139691694
0.014015320847072944
-0.11605697309141544
0.0770808442595689
0.01328437939569957
-0.02330258945933838
0.061058311477313915
-0.03183191419056781
-0.02351880340885467
-0.026434477277509607
0.00020463036404953485
0.10524522106051015
0.02995874698888289
-0.009617401908280906
0.020262150250995207
0.04786561836177037
-0.012682633080359605
-0.06660572374346369
0.02005567017937746
0.060367009213790235
0.06901830790532615
-0.02281537819604714
0.00724501928274307
0.019626304337713292
0.047828521788602765
-0.026948765099849704
-0.10717940133380387
-0.014470779884516822
-0.03530778435667015
0.0007612345064640574
-0.09659606678365161
-0.031236342847142273
0.0002677882489387843
-0.03861722194273287
0.06443001176404176
0.00979198290847716
0.030172459578038366
-0.027066530086393644
0.03234712714289596
0.05655508167935422
0.3948823667414685
0.9608421205838321
0.5553798374055844
0.1337855759082531
-0.05563185162813098
0.0723185695169942
0.08357084660165517
-0.02499429796098338
0.04458277096343059
0.05009594974901721
0.0465182870773682
-0.07863000196629019
-0.02313231559364351
-0.011805779752179854
0.037245220105867755
0.059969926920408013
-0.07304305779669099
-0.0446384176090643
0.0025000104121551347
-0.028808090049663684
-0.001473681050652154
-0.03632721125003143
-0.010301215001399196
0.01638560277404771
0.10862991622147139
0.06352271147157627
0.01964849878779397
-0.0017672977267194586
0.002289072380927842
-0.0973882578019639
-0.11283535782737175
0.00948414065755634
0.028931557938155984
-0.036732531487006656
0.04597713497802899
-0.029665069893061446
0.030572466461779982
-0.007721114800320577
0.0106413635466155
-0.044837455561479736
-0.034799042253596264
0.11944538430262092
0.02494662778674678
-0.08381097694003214
0.007409141806112163
0.03213338947383714
-0.030778520939534034
-0.0801940726400768
0.06266091171746403
-0.029228238558330174
0.03170466245747109
0.1268899358138063
0.040840619981170515
-0.010572385899425649
-0.02893891720619874
-0.046035286060814334
0.0010059664155715705
-0.011501349087169752
-0.055190542665657774
-0.018383662413828324
0.02252221509105377
0.038485610007251064
-0.00035012393220980396
0.04497377495831452
0.10735770809339656
0.002658235238542801
0.11670819707730329
0.04907542806682472
-0.048603480425178265
0.08558958223122955
0.021554267849902636
0.04359539760201825
0.03662696402419265
-0.022328448025245667
0.0728612251196417
-0.026742166835602724
-0.03349626164944083
-0.023573772890319634
0.04580833574124293
0.032401284442440274
-0.0368642878817351
0.04906923240818207
-0.026718520383998502
-0.011699314206748423
0.02561235627529733
0.03477693489492352
-0.023428370725790577
0.034455299178205626
0.13126856312798074
0.03930009200185408
0.03242750549526531
0.03012515534198659
-0.09709311184189423
-0.03594017635296576
-0.014648793617398842
0.05672173447035759
0.050285596987300944
-0.026328582035067122
0.05462760750258044
0.07055429931780113
-0.01160396494565091
-0.00730095413724704
0.05014686370830034
-0.01166357904479464
0.04567453765795901
-0.02623996245297577
0.06321529517780937
0.031412183297721157
-0.0005095587423005525
0.0041482541156439255
0.034674362420331915
0.01269764711457975
0.04069141022691602
0.04081672398344569
-0.0253373814965353
-0.030427240424472708
-0.005366034177931259
0.06402776727537773
-0.033942478510327716
-0.04000990765174976
-0.02064745230908423
0.03148893582807084
0.030236301491962977
0.02580807639463302
-0.0715838185830102
0.15814709568954427
0.005998264681370137
-0.034649942747497796
0.06227879486029391
-0.05052389382432432
0.02982066863550291
-0.03317603849892072
-0.03280076658605056
-0.05793283168131791
-0.0659705897305367
-0.017986066523664145
0.029449775540856073
-0.03510153165128967
-0.024297868709319298
-0.10399757594664238
0.046118325917306205
-0.006360491850804307
-0.12327211937435228
-0.01852200009554863
0.015310600287800184
0.027353948138865297
0.004609464901757222
-0.0424303556363412
-0.013807824988030999
0.09814460102695954
0.0031671082891867167
0.023706834814069586
-0.04365863556458041
0.0046574046146241185
0.15985997984625624
0.41518298288602007
0.9468701862038432
0.5363398483076256
0.13408697408771503
-0.04748190970045438
0.029311230548539964
-0.0421674542577019
0.040959525610999706
-0.058169230624834325
-0.005436884642192101
0.029622340767941492
0.07089334844961455
-0.006193897932069746
0.0069404417957073545
0.014918123721782701
0.016726631585931108
0.013685349992223542
0.029233233935779476
0.017736548634864294
0.011052227710498819
-0.01035012942339702
0.039934293722098696
0.0436741061204666
0.035223255064660175
-0.09865011245356807
-0.012073969640655581
0.009640479444007543
0.0009272221337312619
-0.05098301381613939
-0.06925300250509187
-0.022474439957358806
-0.03328253513089823
0.057618137042508843
0.0376086401841936
-0.05539867732342041
0.013795397903107598
-0.004257696888302362
-0.036034059449229376
-0.12064065233202331
0.03905794720328087
-0.03537705516766258
0.028854383610149276
-0.02510336266591707
0.017876581267727665
-0.009342392964084706
-0.023350201941737744
-0.02213667116253172
-0.007691492464740358
-0.01456299421199108
0.07367687133540611
0.008126437474514612
-0.012544046309389548
-0.030656390744666126
0.006523501687640826
-0.10111152263045407
0.023855762797916874
0.05169199055489432
0.0013419811733152089
0.014760903129635803
0.039779628105460096
-0.027034620859194242
0.04212483237744524
0.004605155709764302
-0.03500807258351705
-0.03023146767082951
-0.0794387184306221
-0.08452201604221721
-0.08562493680743946
-0.07282279582844238
-0.038957003143132315
0.014335403464204378
0.006278513539880547
0.03226140284731604
0.04167237012247265
0.027990805836433222
0.023854346465708883
0.046788909140743656
-0.021219204817435583
0.09817334517521777
-0.08790764241169235
0.006612125906119604
0.061177384398754614
0.005624920901350159
-0.04931432832615932
-0.051770621980337356
0.0015645279396631522
-0.044530816390204016
-0.013752090392660494
-0.07591874333079868
0.06782833880352607
-0.03144021388234209
0.018281273556589508
0.039534349559923854
0.0019653811349944032
-0.010692163553644524
-0.09345495454005814
0.05848807193262504
0.0199211761850459
0.052349704788290055
0.0664598079069763
0.02498703018100858
-0.007339284015963982
-0.041260685537229086
0.05937396034691503
0.0241863247611809
-0.023072948954763133
0.02496151239530897
-0.00924979479147228
-0.0003552445537453313
-0.061970118396519294
0.046281130747170135
0.00047790267980459954
-0.05402030820473015
0.03462399877965159
0.01432064101043028
-0.0006453291754535966
-0.00765894407784162
-0.056398996359509485
-0.00885256796620344
0.06269374355159661
0.0884483484401043
0.030741507204644872
-0.08925711371744993
-0.02439614929376728
-0.06729520174082027
0.00497458128689548
0.02759070252875966
0.04060290171465679
0.023926486844423993
-0.011042579388053721
0.07104672492862724
-0.07730009440525676
-0.03713584242484388
-0.08978782142417625
0.06608258815955002
0.11165134181431868
-0.019815136454873244
-0.03566103732294594
-0.012642268996524906
0.04449692194748185
0.009688546334556786
-0.025933661219056284
-0.013048497547762647
0.03991852011380415
0.03544773845366461
-0.05293459301650264
0.022544336232945973
-0.011445438200384548
-0.05662197703643668
-0.08461257882586361
-0.016173602490666402
-0.04002645930502278
-0.016034345338048716
0.04118992788505462
-0.0682672605395596
-0.009517041226157017
0.023629664202077565
-0.07173803126789365
0.040077128255250116
-0.004622448168266924
0.06261400751816461
0.08994544573271814
0.48247325825077564
1.004974993999504
0.4547427307424492
0.07192670346336787
0.03959796079990964
-0.07531736852872682
0.013549486718411425
0.04331040166140412
-0.0017747919430318043
0.023953638372232754
-0.0018076013417433184
0.02552651793030171
-0.031082299093892842
0.021486341569094673
0.013914319126683115
0.04901998497755385
-0.0534326960692754
0.02139979311669281
-0.017144198465433847
-0.00869086021034089
-0.011877831290470939
0.017902531608829354
0.03986644637554056
-0.06160673354796167
-0.017011914414055734
0.02891101931469292
0.048576354703103605
0.0013835820643040668
0.07552603850831867
0.021870180387904326
0.01959021415573263
0.11947055543611462
-0.05665707481097091
-0.051803680060738426
-0.04955220635714719
0.03508253129935876
0.029672055153185706
-0.030754575696247705
-0.08403996183921257
0.006111040402031355
-0.061525286932790337
-0.011099483819284751
-0.05094704987944644
0.06822065293690781
0.008927983563646822
-0.022449966041105832
0.0625544831733748
0.001300512560891488
-0.041937366343768226
0.006520698618778281
0.01807687974086683
-0.12161161448463305
-0.029539796181328754
-0.07911198491117477
-0.030655975629483825
0.0703920413153074
-0.017404309085474114
0.013664268044271208
-0.0489103092830188
0.026537893224537014
0.0073830578915994385
-0.09174771872380094
-0.005915202440937693
0.05113957637613198
0.004722054957155963
-0.024668979316366517
0.07586620937614924
0.10042046622273904
-0.01778387059835031
-0.06418084708404533
-0.03368265674408754
0.016826151517184064
-0.08534880511758929
0.03981304727256412
-0.09313913673201485
0.014883144643049913
-0.06854856264083539
0.020598560781953403
-0.02597640308314771
-0.04853404904678595
-0.017196236763576428
-0.08817368945278173
0.006348027742237332
0.0009323234417050827
0.07028888698960538
0.01803978882616364
0.011012611657957212
0.05937400346925953
-0.006892461491961172
-0.01002870361206448
-0.07107581848659189
-0.014666223278248697
0.04838830157209901
-0.0465137492358039
-0.04006371798366437
0.05523784967193354
-0.0609145023656536
-0.013750800581868415
-0.02146546142181807
0.011670314643251566
0.004998273700907068
0.026328278958040397
0.021388015660852463
0.03365490210633649
-0.015936504833129066
0.033294259457658286
-0.09144196008076882
-0.007409789657432626
0.0152058762043223
0.0705281403526569
-0.040235488734871955
0.06419707727042094
-0.05386039408168569
0.03665634898823381
-0.08020814673025374
0.012866107597445635
-0.06225992661615254
0.0032555506216661724
-0.01476743505958035
-0.006415698075613284
0.01543267529166559
0.003864514849397556
-0.0284227130928363
-0.08307355863859918
-0.08644569883392868
-0.020341640177437642
0.05672000219701474
0.016679651801480788
-0.0071878707468459885
0.0282523852971026
0.00034299971867155047
-0.03205894618552147
0.051787471469676806
0.12374111708279226
0.015862273954789164
-0.049221612487753086
0.015394029843909758
0.09320395998295246
-0.030058091434293596
0.0027024275562810836
-0.012659367504794468
-0.01174971449433141
0.055743649388081865
0.007872333787254068
-0.019473928135373877
-0.06619054331353627
-0.00854040459585029
0.028398533965832286
0.0365142108091607
0.07675794158123117
-0.027537349421789155
0.01468406646118893
0.06556884528781128
0.01690263054635024
0.05376726104436065
-0.06404920470110151
0.10938597395635115
0.38595093689736704
1.0520131812235278
0.5384215745303166
-0.001767499093025801
-0.02495135217945867
0.06658899119639405
0.07931688425083382
-0.10450965164394524
-0.04927757487693835
0.003063825906887208
0.03919579887816204
0.02917240057557201
0.05330833500098606
0.008630868534176965
0.05798901059185832
0.028451636982937647
-0.07732073534315509
0.01611740524652723
0.0716902360242002
-0.05914655942775809
0.01047421008611352
0.029306780342741846
-0.08988073366534922
0.005305388084768291
0.03713957436829095
-0.001744119054420257
-0.005547813864836607
0.01497772834353063
-0.046222484006420275
0.0116352946723603
0.0541979476653545
0.13627583407556532
-0.058840884691882346
-0.0545265713230281
0.012685816273263865
0.017233237165030266
-0.03399841640143892
-0.0014504003240904473
-0.007305271234959019
-0.09776342139825085
0.009148799140077693
0.03743066164174929
0.012592152322457887
-0.016198643279569467
-0.02223824287325826
-0.055406627249745946
0.06350316938251781
-0.030251850808806824
0.0716152833612821
0.005634663874019117
0.019651095897380264
0.025709941478171013
0.009004202138381422
-0.059329605872383534
-0.007489440212256471
-0.07269976645118197
0.047849867320112614
-0.07809049103040881
-0.021208954122117055
-0.03308339356190266
0.031870730580625256
-0.016209027850441125
0.021213198292286007
0.054017018985732614
0.044668809620656454
-0.07098869528242574
-0.002019655864213544
0.00389720957116873
-0.006105191315577373
-0.014352487220481281
-0.04444572968815111
-0.013932496947590092
-0.041573882791554606
-0.008661379740699337
0.004073621918333759
0.10837628088459664
-0.017995730096511547
-0.010297572834226327
-0.059322688098316034
-0.003085246230170298
0.03454572977812009
0.006730000679427502
0.08803104575768822
0.005415545176907258
-0.034452393350647495
-0.021963420851540405
-0.008345083449763948
-0.003491886461346724
-0.0322533748309201
0.035949884086823584
-0.03571174293884171
0.03273989111725625
0.07493045403663509
0.08426255697134777
0.011556229530863216
0.015386762687566162
0.056654606134541055
-0.041240672317959075
0.008078845659715377
0.015931119253290806
-0.0749703118954148
0.010921937701120286
0.021688255943658308
-0.07499007546193621
-0.056762317191798785
-0.02958435988270668
0.08035092247752766
-0.09102989333762541
-0.014021087217947613
0.032292057848389746
-0.012410798805815292
0.0020494379966604164
0.06220736810056653
0.03947848727701535
0.011889595473094618
0.0034237174893521106
-0.0339992850104881
-0.026784421255654514
0.048953320721146186
0.0676042744767065
-0.058680249097570164
0.014104752925639528
0.029185983891398256
-0.03967227806651378
-0.02256634460235427
-0.004453070885614804
-0.02171698046638077
-0.021903475504742725
0.019269239145120694
0.08375565042176408
0.018650058010421283
0.015797970722405276
-0.01777456718636016
0.007008957007714253
0.020970631899640983
0.03014000786013174
-0.026820408142202747
-0.08334260383737005
0.043147395700716615
0.06963524551017998
0.12626481138913226
-0.05292652207061119
0.019664610370992118
-0.04492474183247029
-0.015804934468609488
-0.040950348157340374
0.07848302342889163
-0.04157177779363474
0.058299572634494895
0.032565580507074414
0.003001771554984667
-0.042127102826132516
-0.018099446465228985
-0.010202214960560813
0.599924620829608
0.9636622936136544
0.5984982238394333
0.12542008193480703
-0.0877784512949943
0.042040908683379
0.06027027359419859
0.009607022579287385
0.02042021701535017
0.05047532571978966
0.04848466875559694
0.06737986666229007
0.0031128219988220494
-0.06931849606352675
0.0421485988219145
-0.07920384575963538
0.037619583546723664
0.06224362721354999
0.0010664357158825073
0.07088604077350844
0.05543823386038983
0.016292426332864086
0.051822047066196
0.022464128842847778
0.10760472474548191
-0.04670021084568153
-0.08211311212134076
-0.0806345274571077
0.08543026423854697
0.11252222861649029
0.14079694208108792
0.025672656931383438
-0.05271197094390359
0.07512953532015587
-0.04519765913255579
0.021296213883411616
-0.07829447286935196
-0.021508801152776046
-0.006668188644606767
-0.009116725354380354
-0.011299439590089437
-0.004794805661376395
-0.031625907720039
0.05032193112253264
0.11674936171699064
0.03091088549846174
0.017082711164835573
-0.021621829470095694
0.031519437708682534
-0.05877809605878545
-0.0037020688086323965
-0.04062963529328312
0.027152878679860062
0.023626273880493567
-0.004062948595897535
0.006131694199970769
0.051740945686177854
-0.030491626350748847
0.020780251088222804
0.016493034980557517
0.01507959532002675
-0.0663482695584252
-0.01795222013609009
0.10433344233965931
0.017669493935421787
0.0593411921224586
-0.036398382832346664
0.021375801353469847
0.02448204190177682
-0.02529639816718851
-0.018250056801442104
0.03584183875982193
0.07092548425208837
0.09232562520499371
0.06559886752748866
0.002466221606872829
-0.03673026521067588
0.027361888391972164
-0.05262971473898353
0.05242727416008036
-0.024612804412144605
0.06370655703095965
-0.09331421920819744
0.058328853735807276
0.022511216595884696
-0.034946143176576336
0.006067680138516603
0.022895477968927994
0.034476592321408685
0.0552325174786113
-0.047468559661310805
0.0016531094116702108
-0.034681578738579015
-0.07405612320907666
-0.057019455149753796
-0.050168640666114254
0.14099823507486195
-0.038044000979877035
-0.0456275615362233
-0.0024206054165352036
-0.05648422314307037
-0.0035925814068916324
0.0077798691881804174
0.028960906892448277
-0.05626843288433885
-0.01127910441245914
-0.028052504106955502
0.01201857984888839
-0.019212239800679355
-0.08265533796226467
0.02847076474907369
-0.015791345232092063
-0.03248980326132481
0.10421490012162578
0.017978752359496374
-0.01066111512828113
0.025813369106642725
0.025688489112968466
-0.05554091715945375
0.04907094717659089
0.02156662315303975
0.03847632812318302
-0.023570336450366533
-0.08320708763935533
-0.0008084077937621499
-0.015509169639034724
0.0695534723820023
0.002298595871544839
-0.07067028208394331
-0.01766313452715075
0.016935885794200974
-0.01729701061850258
0.031220713926331058
0.06304008221941752
0.04727882425223617
-0.026819878740291188
-0.01846661213406145
-0.01249302158718057
-0.008069524217980814
0.10202478570609735
-0.0451628173164167
-0.007332256092076036
-0.01895954485493707
0.07324698415584247
-0.011264797191302169
-0.06478822627169394
-0.03343019767195298
0.04139805048613021
-0.06158926063256959
0.02328675265210383
-0.02702800382111984
-0.0774419446216663
-0.0007365480027913658
-0.013172772556995763
-0.026126848568720048
-0.05634726105788834
-0.015218696407258068
0.016026447570439886
-0.004061101660104059
0.17865737571627674
0.5409645104565477
1.0142590339767292
0.5043124931496763
0.11444975068676896
-0.017128831380848076
-0.10038193307321897
-0.060474785895216626
-0.024128535748893346
0.06906431257916146
0.04429747228603953
-0.0758195498940244
-0.0442452626716669
0.02942134666660592
-0.049385287388998625
-0.0790081954198043
-0.03727550490537415
-0.052484896086367805
0.07323594265656005
0.04588249654439721
-0.0145391465161442
-0.02587052051689794
0.037668606262379306
-0.03800122119015362
-0.049936608113724995
0.0066562579097390814
0.0008082129770192742
-0.027793440849303352
0.018602422053445533
0.018249362933581228
-0.07053357330493472
0.005463225916026204
-0.13872339365883635
-0.02554297005715251
0.04093181595895601
0.054231417448758215
0.03855756160377034
-0.03198105025872537
0.06079307817820226
-0.05161303633295167
-0.014150096320801131
-0.061110248876957235
-0.030901180354979137
-0.004853651548331579
-0.021571941896576307
-0.06994651977472205
-0.02865324467774122
0.02397347412778519
-0.050662174042712595
-0.08662327702178735
0.050123337827405356
-0.04961091113185398
-0.019754287397088514
-0.03745602512390484
0.060440850889548814
-0.04926814355275702
0.016866151189043208
-0.016842841930385655
0.1882905083040983
-0.06608921618109224
0.04258867252387433
0.021792082897043305
0.09948593338527395
-0.004272635237911683
-0.027374467947748567
0.030628476578463557
-0.024870048023440658
-0.051865807670857425
0.025143276401941958
0.0068034037133608205
-0.014222899327762155
-0.005133238391643062
-0.04870484554708887
-0.09002206574519722
0.008682465483299307
-0.0356294113220754
-0.05839981898693201
-0.06715070187675055
-0.0034952485676095785
-0.04554994998204848
0.11713267780093609
0.05071749236915887
0.07510497750761011
0.08172858474848847
0.035143890842349576
-0.022896265140491607
-0.04579843908240204
0.049010290111843144
-0.035886520266259055
0.017534220346292522
0.07736978366264147
0.011238560650456128
-0.06062524440160109
-0.05673674835983611
0.0189982756484324
0.04480367674715519
-0.019406120204235506
0.06397008519329744
0.052584414884917385
-0.09428966376548568
-0.052888229404215475
0.03502044828189314
0.04723876896456295
-0.13522197881040338
0.010272911401020372
-0.01597317996683551
0.031195411965360333
0.04136406727258128
-0.03852686806531537
0.06337250045709447
-0.029144696551821475
0.06349877354375263
-0.0378194502711461
-0.0018827943160205985
0.03968476334716364
-0.04333513245344414
0.07424941586134892
0.021212320910207662
0.044439894973490386
0.033191648770435477
0.01742606308188631
0.01336112377693542
-0.10653183354332854
-0.005426185149363043
-0.018409287562380604
0.023986236845089663
0.006149920816972654
-0.023272214826668438
0.004035052771109963
-0.0671158363058311
0.06424357762904447
-0.04895634936862514
0.0011238968626833335
0.05670418090030053
-0.021132345753598
-0.022083707258790837
-0.10330536111338005
-0.014692195729423901
-0.002324555148436474
-0.012763752420371597
-0.07423030275772831
-0.005031288771802103
-0.024606844802332054
0.0499724175867013
0.05086158666591726
0.09494163620568889
0.008519137687903026
0.02749579161347627
-0.03937073599836418
-0.009559072379267225
-0.009531523258244854
-0.03833596306368787
-0.055530907699116686
-0.0025402520371699717
-0.009061027973475988
0.11000488715619809
0.5030084983462045
1.0777287746941897
0.4950818010672103
0.1418693385122278
-0.08294482343203163
0.007538371306344851
-0.08525738022539509
-0.009609060628956789
0.03895021931360032
0.016137782302833987
0.006861165128798795
-0.05378060100690577
-0.03121291189842832
-0.09333255302728083
0.047218650343494484
-0.04018498288648348
-0.015413023052191319
0.04101615645117762
-0.028678053645252034
-0.0030780294904733233
-0.02527513259336587
0.011949829515304516
0.06487162313957233
0.008455333597564736
0.007210131017153546
-0.127285544194836
-0.09445636070149546
0.03965641507189248
-0.02907614221743085
0.09520315028398074
-0.02946489717131956
0.03792057528809231
-0.0240303170921988
-0.021742173832035316
0.048856276569807296
0.03932427610043008
-0.04518175127021709
-0.005373539552521277
0.04113268673101284
-0.049627931609452614
0.015551618606828613
-0.04103286708345075
0.021491759432193825
0.040527730154158864
-0.008815077724679956
0.02189767232947661
-0.02074678569287569
-0.13457589123115438
-0.0011627664867951608
0.0564968741019261
-0.00470074556451262
-0.09624943724336013
-0.04401581661453314
0.016910555136468077
-0.07816320387813118
-0.006001724798798421
-0.018554004312798373
0.02667057725131744
0.04686135345213028
-0.011776934414490655
0.03706178601786968
-0.02094508231735709
-0.04802003055031684
-0.01442284679220194
-0.07399006086128
0.03367847969828879
0.07899475982774586
0.026242145061384226
0.004949729121510328
0.013696858378152805
-0.020744449416135693
0.023900133564672025
-0.0068593249727356
-0.05061942410372472
-0.0012520415043120383
0.06581200924427145
0.109655168295339
0.05058504727847074
0.07378885818499471
0.011731673677665054
-0.02218059725748167
0.04723986527885256
0.01257738123351199
-0.11276928222422787
0.01337563038934432
0.11416983233415906
0.0391982330199263
0.09958448521587933
-0.07719161530000146
0.0059151021419654
-0.039206969335069036
0.11954602529527084
0.019160870258063952
0.05167335551002006
0.019229708359671742
0.004809124335452385
0.02493542904535742
0.0680084053043894
0.055696228653865656
-0.003430577694418198
-0.012327399410781991
-0.006222602910376931
-0.019032993597082937
0.037373909401099345
0.060497115956800074
0.03526950304662701
-0.010371768356582664
0.02038840096500256
0.04857402124771573
-0.04436182653368273
-0.028889467151468493
-0.05221869693925832
-0.1001885074319235
-0.10373112682319081
0.026629600211841645
0.01178909002297908
-0.10251371541485417
-0.06813462453885775
0.0639915700493713
0.0029398792397883184
-0.02360540299303201
-0.021796775296076362
-0.005008798096133176
0.07992908884683865
0.03597730117632737
-0.01019830402621569
-0.03795470758624961
-0.09872266542762737
0.09651602739112207
-0.03818988921125312
0.038581753002550526
0.038269135988584564
-0.009671559219357272
0.010306810987719782
0.00979071051401031
0.021203640085759846
-0.00142360982977968
-0.016443190358156334
0.004236577898447484
0.03604494512719059
-0.020639821750718244
-0.02902773536449483
0.004936634314310996
0.004543298242850932
0.01815544959550265
0.024874817155022294
0.025104049406766533
-0.026003710932781587
0.0602978863476698
-0.0411146577103129
0.017213247017244578
0.020549411040739873
-0.08172022062260287
-0.015029145666407543
-0.057071808511648385
-0.0552896284140637
0.07952686310433085
0.5617611986450965
0.9897107185960098
0.571743706987999
0.11853636807558314
0.061271655228582425
-0.030099386921317462
-0.0015484092532223126
0.05410932377044811
0.00713503787268709
-0.021340308144794026
0.015613698727419679
-0.04492133366657985
0.03428354155507602
-0.013884909617891085
0.026598315688231275
-0.03878106936085342
0.07724271740021463
0.0448106807342252
0.022737572406244536
0.02791396399154078
0.03760940826612266
-0.02829678854994616
-0.04103578212596975
-0.022904244586068878
0.09087499943556271
0.006109741024034813
0.03482876683742086
0.005685345570176072
-0.039197974552869067
0.01954941957617875
-0.05647994964695777
-0.03284215015738905
-0.07467618145823472
0.03624400156792613
-0.017214803708812513
-0.012947639988087446
-0.08500248864986601
-0.059000961644338636
0.018723777564627057
-0.0008701054057508869
-0.02786748006402088
0.005156483946552933
-0.03803123318170711
-0.018428782020734905
0.00960295852383207
-0.011339260793526887
0.042033408557428875
0.08193699284179917
0.030630156204605352
0.02701395909230809
0.03339710279655233
0.08091725075532946
0.03501677559611487
0.035841326123227976
0.008670119995264226
0.07806287224423585
0.04053421026840818
0.019691648713672804
0.010661392701052324
0.07993831867359492
-0.03559454897630393
0.026432440237794782
-0.03935830461748603
-0.01315547674270497
0.028158679653792304
-0.12809241053289297
0.0003919570927063001
-0.07389080385296092
-0.016395765256008915
0.059374166274895196
-0.014794177487176458
0.04872087042481612
0.026350498904052284
-0.04744689749679804
0.04632982448245119
-0.024229216715548244
-0.0036402913647135774
0.030020202199721818
-0.1146537249932713
0.045665985307650515
-0.07413836479986848
0.027977253254528923
0.03819465542549444
0.04457858305081806
-0.0151680299249673
-0.09748744701024324
0.0004720165501697794
-0.016622184437066784
-0.062029871688784835
-0.01158876716828524
0.009950021543403699
0.008780133762022262
-0.05439709369113102
-0.013442963906197284
-0.007799836637218319
-0.048373793802384414
0.07079388268008653
-0.06158500496208735
0.03724332030622471
0.0002705254904485614
0.038210311602734734
-0.05863879770760571
-0.009657116516694307
0.07648440371212789
-0.025608354201167617
0.026277355380900785
-0.0603663061528884
0.08304105950800506
0.06657790622482183
-0.06072495400199468
-0.04903183272336121
0.03875199417049716
0.07104746169762835
0.024514262853954808
0.04476346529460716
0.0016617287244122096
0.05065077944074108
0.019221640315026264
0.09218101104570617
0.07241167638357303
0.06713812352329109
-0.010284396646633246
-0.03980013227465345
-0.009077790267098866
0.12210586947899077
0.010355560325755436
-0.022129350912858232
0.02110433633383288
0.0033047118206987213
-0.008590235865356515
-0.041168941112248364
-0.0612072355969335
-0.026122218961881556
-0.038617427122380685
-0.06081512363199232
0.022198032498748552
-0.021505231009903727
-0.014340171632644281
0.006720555972131646
-0.09058862524613703
-0.041941808144055806
0.026833188294570706
0.00044059395368096035
0.07508750070439407
-0.004838749186645921
0.002133960507914747
0.0681190560943193
-0.02077946630277143
0.006907732483069959
-0.01349603328422773
-0.009055284222965889
0.07206971480285769
0.01991737991710779
-0.07711881641560644
-0.013389090694015624
0.02608277126102906
-0.04902181494659857
0.10163873748848445
0.07287473034854726
0.5077021206850052
0.9917164740812394
0.49789393701500745
0.15376409808055544
-0.029392791227968236
0.02418240586155435
0.02030716302734635
0.01929800618119108
0.00019375530565220482
0.03040542232156281
-0.02712316557201811
0.04052145978851543
0.012352019736244408
0.07496228563138867
0.039353707857324824
0.06551593586922777
-0.07773645184307644
0.026152802868672248
-0.01947983240859552
-0.06319513967653781
-0.0184875648207308
0.07434767302809081
-0.007088101354910195
0.06603955047745416
0.04833809984371121
9.479251444606959e-06
0.005245339277373824
-0.0055078524119058486
-0.018240253396423333
0.02845453010058483
0.0006815674877939027
-0.022561120485856664
-0.035226210298038525
-0.13059252846455618
0.007738276737122081
-0.027399272552341144
-0.019312033848443405
0.018471038057390102
-0.07308237430938583
0.007102392024682509
0.017549994139660453
-0.10370145582501632
0.03272931964939078
0.019072500776643426
-0.0009678990649152089
0.024571513333706343
-0.02236945305429425
0.03250681731238288
0.03542197092636038
-0.008975420170940707
0.03694599017223217
0.04774544410807888
-0.009212671142744138
0.07363769171301406
-0.06671753185703065
0.06482094283547446
-0.0069803979896534245
-0.06115954203286189
0.0005309265998223749
-0.00857398820170344
-0.19333648594193686
-0.06016262096174466
-0.055353379662056605
0.0072185717047794085
0.07192588528969515
-0.09240876624307362
-0.022140032963724333
-0.01716054728731008
0.015338837532935329
0.07970652293860811
0.021539611037695236
-0.00012958900618970494
-0.06696126753990841
0.0006218916403258064
0.05104268038318199
-0.03246877820967914
0.08021660333909811
-0.027707228828770653
-0.10066185654105553
-0.025393229910691758
-0.015163688920383342
-0.02838961160814016
-0.06419784745958344
-0.05230702968990624
-0.09553177389688387
0.006929222258715804
-0.041239757915056297
-0.08062890691743725
0.011796138833132077
-0.016586713787867465
0.05474848699070938
-0.08106785241196598
0.03999021542961906
0.003769865177778296
-0.08665008635610459
-0.0035317621025399495
-0.029459717831286092
-0.06655649348640287
0.13108354495111899
0.02068651926096804
-0.005695857294073169
-0.1000582093786137
0.015084498370508945
-0.07313605035832028
0.03137808776318135
-0.006085404128471127
0.01881711770095765
-0.017278593206540457
-0.0608905960766159
-0.005505070730933568
0.01431036945714499
0.03804167172018911
-0.02131312860974177
-0.010749862992679311
-0.059969043522428926
0.003064772247715595
0.0064667525095028966
0.03119154637756479
-0.008674606636685282
0.005370851303681359
0.023516696515107162
-0.06326532116060739
0.00021044157005962427
-0.022514276730451074
-0.013401382161691917
-0.07832256653085094
-0.07593989235138382
0.0379976340761356
-0.03969642703673837
-0.03133137978888861
-0.017379534407206475
0.035365996894237736
0.021953381574174844
0.03399427598869491
0.008762491835476357
0.004995367542653101
0.05832285040534755
-0.026114238448409984
-0.012620529019075184
-0.005521577154031928
-0.05085476679363846
-0.008095985603395365
0.06891364720974051
-0.06505407351024287
0.005165805572083089
0.06986830159401984
0.08738946898907758
0.00802060048933938
-0.048022990514583114
0.026473699316988675
-0.07989476260320831
-0.08087132649127364
0.05477141944815364
0.10729120502395571
-0.0682070571357725
0.024137339435624447
0.5011968366687023
1.0071503167127611
0.45023133404561566
0.11887939670845737
0.028150288374404038
-0.008621509903480297
0.009702251772864224
0.059531475057852445
-0.0662403714530758
0.005309365120698022
-0.03492803794559816
-0.129868114089358
-0.10811907447540613
-0.062335742701305576
0.0708406447700573
-0.04331056817277909
0.03187164959885346
-0.08247426568684947
-0.11700313709950116
-0.08291759319024011
-0.032941085529256904
0.013090593567226031
-0.006203784942522961
-0.018341203217951487
0.07992637444546576
-0.00366551488247373
-0.05335942953629083
0.06656039026236098
0.027268483330016947
-0.04327947460221614
0.05988290140625546
-0.11702673245315892
0.03510559318758747
-0.05305438491108003
0.022920753233239177
-0.037426017136240414
-0.03952559262787156
0.06379992089812651
0.011436916790875516
0.032954049703534036
-0.02165395671953978
-0.08530706325944676
-0.007982074255763064
-0.01925779651775494
-0.05454801213279208
0.029786471995336336
0.05976713250466062
0.009415175401632812
0.05212487545793102
0.019111336897614406
-0.02680694724362261
0.06637272943678242
-0.036041720532497636
-0.08805858083006705
0.05692542391252256
-0.015198430632702374
0.05186757816322821
-0.04260162568722792
0.06226287245215524
0.02657443469346283
0.04092600882345483
-0.03960297594832199
0.034130154162593546
0.06492990970997072
0.0101699903337976
0.06857908470585193
-0.07148601907337009
0.031244925495110817
-0.024377391178432614
0.04374300895135985
-0.05279873929522251
-0.14455866754148097
0.01934467403498799
-0.009477947441832765
-0.029951841234170967
0.011790195231117023
0.04329598700868184
-0.026933703806036803
0.022924331930945983
-0.00625703606747599
0.025504710392380666
-0.0030867620606127243
-0.016574910550008308
-0.04636006590536545
0.005603230383632345
0.11418122788212393
0.021933642961324912
-0.0468055748181794
-0.008224198287155118
0.09193026063858112
-0.00427013154832821
-0.022027715790780795
-0.009812709894891369
-0.04064537357079051
-0.022063828112180894
0.014890197996091115
0.04572921335780145
0.02332323978832522
-0.05521653928588133
0.06384282016586577
0.029840978464168718
0.01801704551538245
-0.08299336642717767
0.038050000179445334
0.009291822722543521
-0.003120598106735343
-0.05072807604461358
-0.03526775867510879
-0.04806063659987289
-0.049674371509818384
0.003989702366952543
-0.0432486844470396
0.11859474883862303
0.0104747943124057
-0.002425026453328121
0.03656415180515225
0.04207913657292363
-0.01727408627949743
0.007068093628666607
-0.0358056185767481
-0.017239911919643316
-0.039906901171793935
0.013632026701406808
-0.04284734567557057
-0.05277511605931056
-0.08642385891709264
0.025271035559457977
-0.003704754307215127
-0.058187934238624665
-0.061000665180310554
0.04418607064714265
-0.027447213617652955
-0.009910364050080368
-0.007242655657355686
0.02351750988550972
-0.03586188314385793
0.021771927538884416
0.02816047411930993
0.0474985856012307
-0.03319390063741605
0.03386843519527792
0.02526453060686872
-0.044399354229044674
-0.012813873048123554
0.03857010939855755
-0.019262904535809915
-0.05186844556786509
-0.0016915539515749397
-0.08388418790797258
-0.10203588405841174
0.003508201367275421
0.08214500343021479
-0.031244339710342312
-0.02162132349135497
0.018733568489434842
0.1873139981431698
0.5147461868073678
1.0755701507959061
0.42445651114075933
0.10961585009553368
-0.05770155490966814
0.04647067902489527
-0.06919680156747147
0.022968008695255893
-0.00733944903292012
0.049934714745192704
-0.00781552057557635
0.00949774583228314
-0.01067064180597209
-0.13849505596293718
0.04094401122357083
0.029879150417774027
-0.042221420628412776
0.06027011563893573
0.045308243929334475
-0.045128252171629434
-0.06334282360469022
-0.03788870246369205
0.01615345739102047
0.025122841048935553
-0.01160465564305317
-0.016498303864021412
-0.05436518063200625
-0.04167260133779775
-0.03838492832437301
0.009024819028834917
-0.05063355075962664
0.025173097204046153
0.06441393596387636
0.03675692774407522
0.11589511130025401
-0.034371266349000104
0.058499826494852504
-0.04129711738624988
-0.0370702957236878
0.07844724939495266
0.03225326516212537
-0.01819459312894648
0.04759655151758972
-0.0057283360460311655
0.02494968544968408
0.0798026536958491
-0.08520748202818183
-0.026535397010751645
-0.058675461848532263
0.009942711771916477
0.020469891121984586
0.09338473997296648
0.026892106742878858
0.0011884258091723534
-0.09050927042541329
0.03177750130446615
-0.03238891580851782
0.022922373547290084
-0.020125609545853986
-0.02781888089858653
-0.05623844476623105
0.013145222199121995
-0.012796776513045166
-0.05565882293774547
-0.019653976487828746
0.006533601851364163
0.06395079904900804
0.009131352807120477
0.08603726318651084
-0.03947401054376201
0.040251035949312126
-0.00735715667568808
0.02673235785927453
-0.007261343851417731
0.013294697685368801
0.04744668576673511
-0.0043162206955175515
-0.05073191303688303
-0.007537484517986789
0.009690052788287972
-0.0282627921676081
-0.04098385497537774
-0.0030716148579826943
0.015861615010220858
0.014585477406693538
0.03766714302789622
-0.02275334006611006
0.006136161768462024
-0.004684062436422182
-0.008582230135251374
0.10003639077720672
-0.04257432183451596
0.041867284370779925
0.009377139561370618
0.06983381986498881
0.06454104958752964
0.01172896713257426
-0.09610882986457214
0.011474838445208833
-0.06151409863456119
0.12284681843659324
-0.07629966527898843
-0.04382601139885853
-0.09798743565937443
0.09740751821794053
-0.014686830484280539
-0.02060217156603014
-0.002695848618580448
-0.039244719455929604
-0.04278503791887086
-0.03983791108347987
-0.07519284324472618
0.10147200851433608
0.06500241249502728
-0.0008924131915953522
-0.0298854530866062
-0.002053714487012459
-0.01430948726380412
-0.10605619382128217
-0.029374131271571752
0.017994674968414625
0.03748458385114027
-0.02557750309922125
-0.06941515644273848
0.015273839454490921
-0.03499926483614829
0.06742497131155388
0.03851100173665048
0.02107587623746867
-0.04359187795868649
0.10663071722008904
-0.03021255197620902
-0.09765942224648201
0.05280206617091929
0.10803514488931593
-0.07173155178148292
0.08915080039376438
-0.0186514484043546
-0.09757621026701571
-0.04878315071123981
-0.0033835837460350947
-0.04453263141852004
-0.03399102181622837
0.07063852806588487
-0.03220944941792638
0.07125777973719725
-0.029846903730069055
-0.07306927055668772
-0.07320665192088736
-0.026820032804607485
0.018465218370090273
-0.03762382305489351
-0.001244645474708381
0.027872691140945535
0.06371009043691914
0.002004758941676217
0.11137045519203873
0.4716944532094384
0.9497890937397769
0.5035094020442437
0.017737380301678513
0.03822737258076328
-0.03232713962157732
0.008436017119679978
0.02549519483475737
0.014179476830639387
0.02474277993175906
0.037499746801914716
0.024868425652255
0.0514872445651575
-0.013684565307950793
0.07003388831730475
-0.0076205518793723325
0.10077004448537177
0.0602826643162375
0.05788141952698011
-0.027694268169085396
0.02189406901722347
-0.004266448941503509
-0.005402289071338899
-0.03180385881550003
0.0007971614513243039
0.07892627575713135
0.060478992731288705
-0.0022229341036137476
0.05053366489388317
-0.06308198895605839
0.0001871686081221255
-0.004883292931066497
-0.010865760338447251
0.03370766290927124
-0.06781042222967604
0.00328349966473461
-0.036288183844276976
-0.02887283639781464
0.012644666654065245
0.012768970769702013
0.02948696945361229
0.0683599905301978
0.061381435147577185
-0.013424689686945655
-0.002722559621063451
0.07943699920680625
0.0130361482537023
0.12149431617835414
0.024056828227183937
0.058854335619068436
-0.05886305953765574
-0.03392578535967718
0.016152421539927
0.09214205194340208
-0.00946650506454071
-0.13794616226594056
-0.049722694007691456
0.03143240837960476
0.04055176307715283
0.026394604759107744
-0.03141192675727446
-0.018227627790244002
-0.048189727767050564
-0.06304657028669261
-0.13406376367563455
-0.001400334086181412
0.018772360796140097
-0.005188489034756898
0.03414745886855814
0.05923180343656259
-0.08496315386471004
0.02336967666946596
-0.013299848958652835
-0.034645519171434366
0.030873702624744488
0.004008929648161188
-0.07200373942274016
0.0151397771853585
0.027796347610859237
-0.029540476424591417
0.008153998430330772
-0.01745492682987197
-0.047252814609898025
0.033275936006999796
0.00511632718977429
-0.03162479189563774
0.06198744452253077
-0.0028867682631959646
0.10261839880269082
-0.031608018980470914
-0.026336915511617095
0.010598639096890667
-0.027839668514249134
0.03385697842046916
0.009477225797590024
-0.04797323918619468
0.04133875260170608
-0.02832441700339261
-0.011020580194565125
0.052397007062221494
-0.026221664665802637
-0.11195860698929744
0.025003867569104405
0.015983004336182088
0.02832671072102008
-0.06304873281979378
0.008514730748274475
-0.09120457604378716
-0.03291569907243091
0.05145042177307503
-0.026397358744099354
0.024527988034013043
0.03800900260035128
-0.07232315144516908
0.1192683014304866
-0.04886080005744905
-0.013986891401587815
0.006186448110532712
-0.06511841678487264
-0.0013862451219172121
-0.029852544391156446
-0.03427814869602266
0.019793000246480175
0.06742036729822648
-0.0012759450377763455
-0.06882853583959866
0.0833161599800147
-0.056337188082455636
-0.08408675784069713
-0.05632810071474296
-0.06125940183437607
-0.09521768604995615
0.0008191862803047091
-0.025693836673157163
0.0374408455209971
-0.050858724372192216
-0.04570829137029714
0.058134762297498754
0.012940925776212567
-0.03290411039858783
-0.08440311367812665
0.07329710833549169
-0.07095896189476832
-0.02235986107392349
0.06617479461028372
-0.03077511938707382
0.007328232011211549
-0.09749395216980888
-0.031104616096777955
0.09670392804072395
0.03739011259892846
0.07911904281974516
-0.06414854408777151
-0.07595794730389036
0.020179176444889743
-0.041406706829893676
0.008262901864611677
0.5720968001429714
0.9812802267902312
0.47580333430332244
0.14437864908467374
0.015993566462378383
-0.04668307560431218
-0.024233302846597138
-0.03162999470555304
0.046628477201736664
-0.02539470179631176
-0.07623261118438195
-0.01677120789057747
-0.0660254743222372
0.060622390284176014
0.05337616355308952
-0.0902794475816074
-0.025329909690852637
0.001114056463893697
-0.05373054005161474
-0.03791355110589665
-0.028592547317017842
0.030693202658187507
-0.049658496644673776
0.020062181823729132
0.07269158766026258
0.018848106693286862
0.04492290999056811
0.02463857045651607
-0.02205671150549327
-0.0792802710126202
0.045637581480044875
0.0015486236941154316
0.07466144019307473
-0.013744971248636877
-0.048979381274724634
-0.09102995889029197
0.0230702144470556
0.07281879563746443
0.04407166569308933
0.002322139999681945
0.058385255715562606
0.00580831609321956
0.10373315865908295
0.10260213844240929
-0.09704291243089883
0.014427730446612459
0.028980280797871228
-6.965151876501113e-05
-0.01950753479148314
0.05360639440332428
0.004601812581289593
-0.01884912399476525
0.0017226812271635553
-0.04370069861866412
-0.007400494636297392
0.007086655401264967
-0.01755116867821397
0.0006444012561716113
-0.01235362125775278
-0.02267939734762492
-0.007483202457381132
-0.009869237929904058
0.04281431722317989
-0.06954212978356299
-0.011702980867432572
-0.04015463054672496
-0.04923407935341917
-0.019287728605900677
0.010911938182484066
-0.01601034269634942
0.08093414392444143
-0.009211435060196413
0.02822502626755559
0.022184833520318747
-0.003785867816822488
-0.030320429084911782
0.0258991679912453
-0.05623570356431027
0.025196449550215855
0.03582864060739393
-0.04396394338653107
-0.07412479297654265
-0.003586933930436145
-0.024158662455408837
0.011136615583565187
-0.034083701133601284
-0.053069910904072586
0.03283388480922358
0.05335404261521988
0.08138148139553418
-0.0579530136334009
-0.04936289627212419
0.03438622584977019
0.030078982253619525
0.018650642223016788
-0.0574782135964091
-0.00878856390268034
-0.13783754225342615
-0.007795966330546392
0.0706034571641163
0.06077437001921662
0.027220157696231567
-0.020895192476776552
0.0027792395877534438
-0.008138760935010122
0.013586920157027364
-0.0230114667307196
-0.04754640243969342
0.029060860409817577
-0.08251673187190221
0.0833991937066445
0.005034159266698095
0.07558270075987253
-0.02311284412112159
0.08216517823885504
0.04624310862232501
0.009967570494316525
-0.10080913491482674
-0.03552439532859213
0.08442250560123259
0.004818757718797306
-0.028170418473636685
0.01498031078829259
-0.05648104759801528
0.1274174055294076
0.0036011478608788533
-0.1330379879915416
-0.10074452998302044
-0.022815013030611887
-0.022287922371220587
0.03649162920286661
0.03642572914171594
-0.047417073814473715
0.031115302258208577
0.029422782550687095
0.0025512081475398962
-0.029718406100096947
0.020086012844041615
0.012688803804962987
0.05367676259298439
-0.023495899675792877
0.06551492693981878
-0.10134789730491678
0.04909323732596118
-0.05941448395968906
0.05815073944264441
-0.09068307443752201
-0.01714930907853731
0.00636417078507576
-0.05567916437985237
0.027268035658715457
0.052217151282092235
-0.014409666050385487
-0.06472936354826973
0.03254323368697042
-0.0890206988684959
0.11584604657982973
0.4430525481335621
1.021588175437056
0.506727772769979
0.15760732475092437
-0.03343780934215481
0.13423433459187736
0.017438853963745938
0.035464121868372646
0.04653222827323542
-0.010039675273073452
-0.08481651852469801
0.09667065800833141
0.012426727574710006
-0.11691757451863001
-0.010602689274737443
-0.041467599499179685
0.07361259068706527
-0.008546606388053426
0.13518394614051726
-0.011809801072177759
-0.07533623285459573
0.024341978924533266
-0.010752846865052996
-0.08103499218219293
-0.059307925322004656
0.07390055152279437
-0.007039049879905342
-0.0018010150582533043
0.1256703483497353
0.066894894515183
-0.09490493878761962
-0.06613815587758674
0.010029585084712888
0.020066797077346977
-0.03268209333291563
0.009128066627770024
-0.08319352527011167
0.02673624499253316
0.009179415955717777
-0.05395942729345389
-0.05643732215145006
0.004087993684479762
0.020386307292136842
0.05258741908686781
-0.00498598924850987
-0.017204333533935117
-0.03623602968442722
0.03171516284111092
-0.02978445656379024
-0.028369772537250884
-0.013924491834064415
0.035795146268379104
-0.04867611661807569
-0.03120097604511124
-0.08378793741023761
0.039181157877182723
-0.040959122556691346
-0.06290405232534366
-0.030831627240476524
-0.006779382270857281
0.05823991254322278
0.05533775961720129
0.005767250006991412
0.01038233038524212
-0.11809594536647726
0.04149799010409386
-0.02568300699628196
-0.022006018527230484
0.0334141943115528
-0.06338258754268268
-0.061864440496036226
-0.015604935375106158
-0.018085522054179747
0.09106487277692353
0.03118117741910728
-0.0275873812158358
-0.05614700035424036
0.01012476154721283
-0.020124307861796007
0.0634586741548106
-0.038942343938178144
-0.031207933582884845
0.008429434254569984
-0.01231784535058393
0.012143219385532304
0.09865351492429403
0.0038462959683238265
-0.026808191777881043
-0.024417393494361336
0.07679767775303614
-0.06303178377742984
0.020801935008373955
-0.03179050709948918
0.042084745051970726
-0.02769173572988535
0.0046220536350017995
-0.02980495286247989
0.013821496246837255
-0.056375908001429775
-0.0688727272591128
0.023107835669818708
-0.10569822995894751
-0.09202719352180642
-0.059368175170451676
0.014183070074567608
0.018424542518639647
0.029836760583408818
-0.07650185396334429
-0.001051438951120644
-0.01450891830737047
0.008162617500055088
-0.051736220962332914
0.0019132957588765818
0.06353118734183581
0.07968101805941606
-0.0034115015790157598
-0.022407665938192396
-0.009533564990785897
-0.052852277451401565
0.009258111273735837
-0.03550895806741018
0.05843473187317863
0.0534260474859404
0.0034232460108040517
-0.022587087166026497
0.046783927680293824
-0.042371309199960384
0.024309302551128426
0.02209363461553356
-0.019339723899192314
-0.03530555460551845
0.001028618514880956
-0.03288201098810633
0.07865211269311329
-0.0189707464854886
0.03712044732390398
0.0420986927336991
-0.03835381459812195
-0.061275995053710335
0.11749885900744397
0.01266074482834078
0.00011591891837373781
-0.010962132262743396
-0.03999955695615058
-0.03033817376612989
0.002643127103947295
-0.05707699418302725
0.009151863940025968
-0.05538980620643041
0.11215433840158143
-0.05464416784762445
-0.03222988248689564
0.10388257599700063
0.10788896344873883
0.46055811752038434
1.0310478811145503
0.5124498800267498
0.025636513246353604
0.01921385017193564
0.03765051884722306
-0.05345553434682557
-0.010239057977998041
0.010896689273492683
-0.026823764404907108
0.05621172480119572
0.009713384858429068
-0.050498989551755816
0.032933747748221456
-0.03306163522798662
-0.04317721283306113
-0.11627733218814591
0.07383961390060138
-0.06166197082627345
-0.046620276509657756
0.01835022218794465
-0.05073622447299297
0.03635454992164733
0.011434568128700855
0.057507572500298254
0.04654027308599022
0.026294488269573466
-0.05154265984332487
0.0009878965558157936
0.03274892919344409
0.02151024577075014
0.0020163051184677533
0.01347892348697031
-0.06831136611402427
-0.03534443217637638
0.012826702637130925
-0.07359615775836507
-0.00970018077387342
-0.03565011770749028
0.09387099899344553
-0.06588848243612937
-0.04312376658384141
-0.034175830042138845
-0.051292025496609384
0.050024805234974004
-0.019540836615355533
-0.006372806898038945
0.035123553157914655
0.04101274320358373
0.02385569224924511
-0.023026190037161942
-0.004590152419113025
0.007756790121816237
0.04407818160173159
-0.003748516073662725
-0.06147398683483164
-0.02499239040048354
-0.03588015740253055
-0.09978896261270032
0.06327775833435025
-0.05657922608432894
0.08735949553357537
0.005913130874380896
0.08672554843950171
0.033032383441089726
0.03720212366406063
-0.0636445399765276
0.028723021300282155
0.10633249481970436
0.00989586518970344
0.08706910205480634
-0.005607058768462862
0.08460565385951
-0.01913081339072926
-0.030702446383909388
0.06004308724766862
-0.005693503413513712
-0.013960495959218763
0.09195218162953894
0.01077962387108343
0.07598132775780275
0.02813308555055133
0.03276123583461792
0.0053422571954816495
-0.07271496744933728
-0.002998449541742028
-0.06634569723121911
0.06314678493070151
-0.04442121574767658
0.017988137657768778
0.03749422599097526
-0.02075514624065326
-0.016148751699423765
0.03026556565020763
0.07073324649397875
0.013902413043332076
0.03470940138870187
-0.06091667120536718
-0.06794114566368277
-0.020820221356355237
0.03572110004149424
-0.00867112735391446
0.05349032698525237
0.010238223729447826
-0.054783680298443105
0.011674055238232126
0.007014213582607044
0.07272198775035892
0.02538402075015499
-0.02800134938904632
-0.021362721379961036
0.08863441347745174
-0.00014294019617220178
0.04840663527101477
-0.03245431566842862
-0.0485817452606405
-0.053968133251255136
0.027905840382958437
0.03243137880750879
0.015516586069354833
0.11125442825131521
0.05959043299933095
-0.009764360742853695
-0.02114918898262154
0.014939146215427393
-0.0940693333435686
-0.010290834697541433
-3.6097763965793333e-05
0.0749688092211551
0.07326089681250607
-0.021824954598576293
-0.010301266620382117
0.09776731714733462
-0.021518291644126816
-0.015640217433382213
0.05058872457106833
0.054205535000645504
0.09414054837708355
0.11709574648832595
0.02749172244015224
-0.007862596042501372
-0.014396956978067943
-0.0355344943897724
0.06478873208412787
-0.0012152833812497021
0.035788018015885326
0.018602841175882144
0.03627047851192286
-0.04527713215610214
0.08797993555295208
0.03616338106911113
0.060914190203866785
-0.04606109969914165
0.051824083930915414
-0.06629916088757766
-0.029161048915430234
-0.00289812313109283
0.12220852815811241
0.05875866321264905
0.5229889455287952
0.9539460473988772
0.5210819326296465
0.16996598771209467
-0.023915586574000627
-0.04185233693797933
0.028124114618672036
0.07275983913891343
0.020636128561843353
0.044862270175806976
-0.017960251757243362
-0.0727594722585476
0.07105728871781858
-0.04928848571444135
-1.7971081620961107e-05
-0.05017596999147692
-0.03942873326505774
0.038351171869417305
0.054555416495587275
-0.0067504830413553825
0.12545387604986796
-0.04827208451170424
-0.043481998223275434
0.004106330629365866
-0.042580523144297534
-0.09938790988097318
0.03914676925838806
-0.025946232771628663
-0.05013375157778155
0.021849225059305404
-0.010305273748169983
-0.06911285295526272
0.04439619957889274
-0.05856395013687067
-0.12762778426398422
-0.04190855481405625
0.025061089267870897
0.0766691914768307
0.14148998555977488
-0.00343438608940575
0.07840225152798887
-0.01475020630819956
0.03493457255208517
0.025800591256350598
-0.015547305930603742
-0.02457019292675858
-0.05818365573319172
0.03586967079819209
-0.019509877443254033
0.013833983597697587
-0.05011944840733323
0.013315705751618329
0.05837410343012908
-0.010706743693355452
-0.013378191892716463
0.05167865893792655
0.016108580650117513
-0.04720582743373064
-0.12850453004535495
-0.005513385042272893
-0.01465366291386164
-0.021421385784274743
-0.07867193775488357
0.06413416283308208
-0.11444428307976445
0.06865208335665156
0.008557179538232844
0.08683466057405655
-0.0584194624949529
0.042461745597470714
0.04439433146208805
-0.04341417949160619
-0.04331138960679308
0.031240095509908666
0.00963697530903894
-0.0024889526491799225
0.029089415210217014
0.05340656247194519
0.0024578144725301977
0.06689232993457687
-0.03609826118039893
-0.0329906053273954
0.019951054924503022
-0.03416309717987771
0.024250658534707197
0.05306278392868106
0.03172394114684073
-0.017906319417325307
0.019484088451880544
-0.07038540402972271
-0.12226143124833705
0.010092713290218507
0.042473126568895875
-0.04288582468977102
-0.04787540455759599
-0.03146169775506706
0.032707715984037725
-0.048237608867561045
0.02867277562307585
-0.0172582769885691
-0.08916659619038839
0.033979498031987215
-0.13152010447785434
-0.014789758039402157
0.01890191281366033
0.0629473954901099
-0.019916927395303537
-0.009113277421822113
-0.0274182620410348
0.022997789804402983
0.019179650216328812
0.061630192400254
0.036848713086287926
0.038399637952216764
0.0019845952056453393
0.005442972509116469
-0.014644161225420206
-0.052330355892578874
-0.03642333024945925
-0.03173669931253939
-0.03839653278628807
-0.03672437260762461
-0.006702725304547796
0.0503966887221298
-0.020379185455019298
0.026603027516658106
0.01665782085379333
-0.03458120952888299
-0.010963758086627846
-0.05853006594349772
0.12133563138568104
-0.041226937609047554
0.07900770847880118
-0.012461038584420867
0.002301832810626529
-0.040836828509097645
0.025937768537553703
-0.07070018787720221
0.0176118411489439
0.03288896209388852
-0.059397802071536054
-0.03002516326285047
-0.03600520746994291
-0.05355473533038414
-0.02500686649677556
-0.005880681509140589
-0.020676284248962562
0.004604310893513837
-0.03450044151140524
0.027223037505539827
-0.02635280899926827
-0.0364882779554722
-0.0502149069295321
0.013775154802645077
-0.019157231232988334
0.048575596847004306
0.04309985430709912
0.0622283108725597
0.4838884781759183
1.123499245500388
0.4781457384858826
0.033520143451038084
-0.06021096211496858
0.001982424723052047
-0.06082929470572207
-0.013584995734421547
-0.04785832250940694
-0.007634267517531207
-0.006640558485394604
-0.1174251022943388
-0.03590487887428075
0.04431413506957317
0.008276280902781444
0.008463688788769736
-0.016102038659506667
-0.027597359977891225
0.07397396855794465
0.015953131291230573
-0.01513112984224995
-0.03535914548320083
0.061659108433441426
0.06709727266321368
0.06324313526679134
0.01739634651473985
0.058364667753887635
-0.047207737269563885
-0.043135449832530585
-0.029666590627225754
-0.0836128272963354
0.025249273609194912
0.052321990552213905
0.06607710307943884
0.025186288569197603
0.12059518667499046
0.012069633259303818
-0.01142663830104932
0.0006303017151856989
0.009179430459270414
0.03809350665048576
-0.04032042244521386
-0.002765823609394373
-0.011267711790418182
0.010444072358962334
-0.025127912073530535
-0.01308284113901611
0.08710792571163382
-0.04782579347654979
-0.10798898297723465
-0.07187227960340484
0.020042016361017774
0.01341992526770523
-0.022981864556143164
0.0661724758157997
-0.10463595073472315
-0.00018360914518905164
0.1337016598217652
0.0758765998484286
0.02664254342734373
-0.0052832861495845625
0.061101395988416754
0.004206042048920685
0.028256053947563788
-0.043925938789384625
0.003209280177645054
0.05887429815377631
0.07417650444837667
-0.029593878577579474
0.05550235151471144
0.04263295872302882
-0.007277022915435339
0.0213213661795182
0.0907333358785978
0.048554802697693716
0.06188182185109042
-0.04672914232152526
-0.06824111698988061
-0.018508362247790035
0.03164884292043028
-0.019086671865259995
0.00780933009306127
0.025157879011043844
0.005220392239571346
0.041865907391543555
0.05900775640319296
-0.03234828153741832
0.09305854368139459
0.01826737054071883
-0.0007151605730691662
-0.03138770678784891
-0.03774214595216913
0.05136987677963709
0.04539617217527356
-0.03360990147002624
-0.04959326879774122
0.0005006542171768388
0.030012471588763197
-0.014187874651636324
0.01296664248497568
-0.02094856371946122
0.02521556192792239
-0.00873643413690058
0.08830829027911392
-0.04302247377046019
0.0716288502670087
-0.08312960654253608
0.1157123286251563
-0.020389743821442874
0.01797335535690683
-0.030557819316149037
0.056321910440647494
0.09251980255838471
-0.05715634377449125
0.05045269986570851
-0.009494269742060336
-0.056568573998020226
0.028957936118480916
0.06672539649198432
-0.04705976306737284
-0.09084437741372327
0.035559760024376524
0.0803267333208428
0.03549153617110958
-0.08120967299183335
-4.095967829010962e-05
0.01066250469505372
-0.04701266478649372
-0.04552739056836308
0.028067546898295978
-0.016652008595846503
-0.05404955783716301
0.09803456081648802
0.05881158862589954
0.06039658420388985
0.010960560279180525
0.137927414194125
0.049085902372893626
0.0758939171622372
0.0035131044018522346
0.026329881221675695
0.0371892974916293
-0.058560980197868207
0.04256913666010069
-0.016306852164262215
0.0136356997757693
-0.006353678050798717
0.036056579602891346
-0.03347501752198997
0.0799966892554932
0.008779872329565444
-0.04964881505571564
-0.013716301230029619
0.009332696312713145
-0.053234727333172305
-0.07214256381093014
0.024882819786724027
0.13601146291869282
0.48013857489134143
0.9940879231947927
0.5805406804391475
0.10487665932100398
-0.03210342859720334
0.0987633760888966
-0.09227921912994203
-0.012304987075115919
-0.043943279013620655
-0.0026961590941655057
0.06976548387037827
0.05143582760072986
0.05880602531899629
-0.001186751007270408
0.05403753511731002
-0.024509747588011437
0.0657526712833866
0.014501963268020293
0.026132928908840797
-0.022114828084297725
0.014654251660023097
-0.0976681194018025
-0.04961410469371498
-0.021357270619280985
0.00800116960492386
0.0797375613877649
0.06901277704737378
0.005932395543987944
0.08460559049768457
0.08540424478220127
-0.06310163008618505
0.005450997746836366
-0.03457717164283528
0.04514116504711292
-0.07642791028485155
0.012401406193608362
-0.022287746217163097
0.03067228081113639
-0.06411275301850683
0.07939367130079467
-0.027000293792733894
-0.004924458672588068
-0.11875082052893476
0.09186170990601814
-0.029662700439545886
-0.018718352174803842
0.0739516706391297
-0.048746774114418065
-0.01553097971000095
-0.11051422610919776
0.019553500613775723
0.03486755502956185
-0.027572590305696296
-0.050587251071167655
-0.09680101897563106
-0.16302815631170986
-0.09500835182763051
0.12681924066786684
0.10316029244120287
0.025717557229980544
0.0995732346420115
0.05458021087889318
0.11000859550880443
-0.08197575856645457
-0.04256165784284657
-0.008340347345196085
0.01898611252178669
0.0131939490984017
0.03956222581109204
-0.07696060516165724
0.06542089150449691
0.010877350444444621
-0.03809632038187519
-0.021810842249108477
0.021680600720315888
0.049709388625538725
0.10432768139563416
-0.032965777510966264
0.05165606060712391
-0.04288054707088024
-0.031137560401942634
0.00612063592752349
-0.09088295105063676
-0.02484406597394284
0.05832464027424736
-0.08087230297667614
-0.01327375522772187
0.047548946221597235
-0.06340073867992559
-0.04200207814376061
0.0015497352767164223
-0.06384364831617664
-0.01992671220709806
-0.026747519123945008
0.0077177996708931084
0.04486902122107852
-0.07529722216318853
-0.005532949915564195
0.07627512828037819
-0.0060135822858426126
0.02841193960142408
0.1737390579202537
0.02363513963496844
0.04104550836683608
0.05936074040356917
0.014730220122947791
-0.005809441259975633
-0.01100509155612649
-0.02588829753599437
-0.04250889916199235
-0.06421967475838421
-0.020592857188749078
0.055743198795388305
0.031087270984944262
-0.06470122144117064
-0.05026093170352885
-0.07412091362022537
-0.044984687759010655
-0.025027974812374468
-0.015749625601677558
0.01732933127162758
0.0028834060197067113
0.06658783613694995
-0.056431192221813156
0.06983987016499477
0.0009090699319210344
-0.00802814951960988
-0.012831266059001287
-0.002291787255354813
-0.03596692379300712
0.04101080564724699
-0.03727001288812682
0.07004018643887847
0.022159642905577773
-0.1429550782871862
0.05378681286291312
-0.027259099118505575
-0.03034815657892516
0.011731820829368644
0.0031127194257079835
-0.03510705471084288
-0.07478278219304811
0.08024191072560033
-0.08886889251739337
0.029782832974024478
0.0637786111818508
-0.06590133562657839
0.03988678206410615
0.004329087363355295
-0.00827985839194255
-0.037604812938747505
-0.04971496868994929
0.016049257081631296
0.009671793043700916
0.08068159066173065
-0.043686939206728725
0.12003104356606407
0.47862315160975977
1.0103676079117103
0.5156019084720332
0.14499851880274833
-0.024041390487334984
-0.03956867794816882
0.056854300952106654
0.04821108800358356
0.05959774096458064
-0.009568303508567482
-0.002639502893979494
-0.07251443162148158
0.05645444306959313
-0.005673586156544695
0.07835317572294853
0.04629847295478324
-0.005146897570765682
0.031921006768154
-0.03031566156139804
0.02620748384300204
0.1272678066128767
0.011128077251131432
-0.03287319027932557
-0.05433895659261723
0.085421070969928
0.07817563943628475
0.092571582298967
-0.06933867087757117
0.06548196164108676
-0.0015634266904552216
0.05347040610891776
-0.018920607927931835
-0.032995077229105066
0.0029221348627666067
-0.04707364801900313
0.040088138932001624
0.026133644830883214
-0.121982306714433
0.03607138509048121
0.047024031279717826
-0.06633053152964563
0.02322334302832672
0.04271001073751519
-0.05749999918224724
0.09952222605753226
0.013543567820304548
-0.0789277478537651
0.05713778611076671
-0.05192974646825841
0.08971985437364594
0.056789931750035466
0.011986965820256469
0.0033778934564259056
-0.014837598234184688
0.010312000323842394
0.0356893703246672
-0.059705277994222684
0.004205353161156175
0.014096939042051823
0.0016667693148680865
0.03640897631464331
0.0025265003906762124
0.024171107865910244
-0.058052889193326955
0.06104217705729669
0.0014348495679525003
-0.0509661492901654
0.030972109288903538
0.015369126184735163
0.03539830503606338
0.04945984349831509
-0.001083041612658193
0.02453859841428257
0.03586049626168156
-0.015925990634833947
0.034842793523781335
-0.054431171572509464
-0.08486943982525856
-0.07744088831205603
0.003360559497511785
-0.050019544268042705
-0.03941272421975205
-0.016163075641409685
0.013265880068574263
-0.03998854370421629
0.02790090300279709
0.04284755160865103
-0.0611577335267508
-0.04297750765353698
-0.05668415373553475
0.059788547201353216
0.012884476175944657
0.03206621865253933
-0.04982085707877524
-0.08856288636443771
0.004128302641995124
0.014872036883258971
-0.027848062857938883
0.04411594219443395
-0.04481525441223061
-0.047101999107140885
-0.04696429957904979
0.007120073839249831
0.033750803024807124
0.07874555515528345
-0.019459675366693144
0.012323386337596477
-0.027302263349284817
-0.10906642330945011
-0.04168124205359108
-0.027780680109595474
0.02064905054499095
-0.0005545710662656928
0.040907518671049914
-0.03061760838049776
0.050457239567506806
-0.03254611646413519
-0.0783745406551749
-0.09730856962410861
-0.0008069845062220722
0.07006576103248736
-0.0005777903397466866
0.06419505245236921
-0.02248199002222044
-0.011191496962907659
-0.038239018656977784
-0.013541563578617686
0.02279334075264905
0.013810139244742826
-0.04257276340400429
-0.035168972459538504
0.07437040585783179
0.037080713029302395
-0.04307275808688023
-0.043328972976079724
0.05129458283658564
0.009901880067513653
-0.036975484738106267
-0.06676875727346678
0.027311950964163723
0.037650228635184385
0.08632172719603873
0.0035105045544449906
-0.0038859175033272328
0.08143563406411046
-0.00408179039875188
-0.027968527149990957
-0.048278390875906796
0.023720457316980966
0.03271812937641804
0.0313307932085359
-0.022723847453887194
0.09177380414946079
0.43361680170171923
1.0255694243461788
0.4408573338952238
0.12954122142178698
-0.05995599903908066
0.02513274112305582
-0.11179749606029872
0.11577612777482518
0.03958430927851598
-0.04688564636038892
0.008201588499801135
-0.0032420000804247646
0.08489225280336415
-0.030171904235075188
0.09010924675926014
0.015302202224744994
-0.1022332590991239
0.04960924534544225
0.00831924346741726
-0.055465898255790326
-0.032499900717042444
0.016973313547820362
-0.0018919549915480832
0.07734382880897972
-0.032227059497855995
-0.08115576956062652
-0.045362433351505686
-0.07811973734121935
-0.07932612737117323
0.08629864821492494
-0.00819256947813905
0.07774491877767353
0.030462661566605223
0.011514764307708893
0.0363074514590426
-0.015477751324009362
0.012016410382285183
-0.05451215976474303
0.027486112925797102
0.004947358417867307
0.0867532515410241
-0.019893932188656156
-0.0852569988937947
0.012830905274145148
-0.034190634835309465
0.03809161760782001
0.020117088148006917
0.10861948954658802
-0.0985142293398164
0.02962569901646402
0.03127583935043086
0.001522701820340603
0.0037832138951921393
0.027701115436605656
-0.0408446998599105
0.005215823667789835
0.06580526725636626
-0.047020935578269835
0.06034864075178556
0.04205181225224882
-0.033356029575988065
-0.0664682222356953
-0.018623221210034627
0.013981507465442989
-0.07201088880957669
-0.01724474547787132
-0.01279354789712629
-0.008773365765716995
-0.022029009189788517
0.08663639507882157
-0.035441581982541485
0.012060951154932609
0.019193864731743962
0.0229494975539704
0.02518817092305326
0.053046173053049574
0.07240792671999101
0.010747818533191627
0.061918596450424516
-0.03650192750087901
0.06513919857089208
0.02870775052439602
0.04733489461961635
0.028959025008798184
-0.08221305059002738
0.022098814127180226
-0.029043167829868707
0.03070348880064418
-0.03432539491675161
0.06519111853017868
-0.01772859174998424
0.06708768030656326
0.001289033813619181
0.030060876509674556
0.10766736991783742
-0.0028866768838515695
-0.021734127476601788
-0.04459356294600487
0.01213875721910821
-0.1087874513169508
-0.0645784192397675
0.05576214407720734
0.014700294232727576
0.024766137607757574
-0.05357567663090537
-0.0926018312147832
-0.03021334345092934
-0.009933502621692226
0.00918517499940791
0.0655406878315853
0.014313952362402241
-0.07687318420798267
-0.01311637629101875
-0.0540673588538166
0.057186632248267956
-0.055727409236646756
0.013659136488317911
-0.03159976937148441
-0.0445501468102578
-0.04862862764715084
0.022724783257821173
-0.038613526357558964
0.009267108895062241
-0.006584209478256026
0.04197408892453518
0.10771363544016609
0.06434941995942031
0.026570254518801475
-0.013309909328882577
0.024379201885460115
0.05548289324384464
-0.005933173402180541
-0.019180815522321933
0.05725612723633921
0.07010973045032333
0.01371613112190247
0.07327324512036525
-0.044463771757725805
-0.0007826923132448774
-0.040287238012194096
0.0009541035761691337
0.05924685195907732
-0.0558295653520975
0.04150986275049322
0.05885591481809778
-0.02591815620133341
0.03289987213660852
-0.04798864651899262
0.04535226021889161
0.026569951296398716
0.04093114236755426
-0.03670897548500071
-0.0700284049299301
0.09202876562345119
-0.020115549108403987
0.03893917790941779
0.004540221344620751
-0.004733871012723146
0.07966118223474981
0.16994215199518004
0.5387738825921804
0.9444697667022226
0.5367080575922661
0.06405922071697062
-0.013263219616846227
0.027070777287138734
-0.026077446471053124
-0.020711477515642812
0.005403104179181101
-0.047074148089375094
0.05611640755396549
-0.0036030993963320373
-0.0017168623737769007
0.024650317263529405
0.09250551855621655
0.04423029255736037
0.006512354315562527
-0.05296285210749904
-0.0003296771068640489
-0.07866458080656355
-0.01559760930687705
0.03922535280667904
-0.002638256534115004
0.018004094648075245
0.06284698986036769
0.03225903088555944
-0.03514556624754503
-0.02060424336797887
-0.018415858592124117
-0.020270845435931273
-0.028192893365669665
0.03827955109473613
0.003085258776932548
0.07173421638244545
-0.08835847953853725
0.014866435015847605
0.06501263673339705
-0.021521603548982672
0.010582319785845168
0.029210679684209945
0.055367526919172017
0.003439498513239777
0.022417066906266825
0.024993015753466845
-0.09338317281293729
-0.061673967116830035
-0.0808395296226404
0.0025248383200279527
0.061882868208242764
-0.025983511014056333
-0.04732414529806266
0.020698585755424447
-0.12499948122900909
0.02745359473434396
-0.028420056380314876
0.0362155058752844
0.043655199613904745
0.0009182726897739847
0.01970815262037291
0.012714226051967023
-0.02329319944256525
0.0009458940126539259
0.06517799980950173
-0.022119755870966318
-0.012599524556861903
0.07964639361480402
0.0622076562788398
-0.082615415105197
0.08816163844153248
-0.025220912536727154
-0.07139000144987102
0.0009930370166204715
0.028455806539246394
0.059674285550813666
0.09347128948862266
-0.05594471104041054
0.047956784274686734
0.008094141442517333
-0.0022756489106388832
0.014694563088039856
-0.011692763389596232
-0.012066150740432206
0.023113235293131376
0.04756038462915369
-0.0025484733899862663
0.02894095059214985
0.04296822107131271
0.05112975868621941
-0.11314811303142501
0.035092803319252124
0.02873400912248547
-0.024720434157446493
-0.02468579928703095
0.011310699273371841
0.04726233766446078
0.007422057273743826
0.01850563205234734
-0.02317285354875194
0.01829027475185149
-0.03439334545605133
0.01802954053729551
0.03450111241376876
0.03405458146283404
-0.03814007847175586
0.023102652372777713
-0.11491881631865242
0.055017989826677154
0.023630165892243402
-0.03619496632944638
0.017829056822794155
-0.014094806223542797
-0.05927365942169142
0.007686738324881462
0.06544044487827241
-0.002309613530206724
0.047906917808219825
0.01722444549933828
0.002117929611768527
-0.029045809026256326
0.01645328846063544
0.06818662879348311
-0.053626473836830814
0.003278106916684872
0.012699250355872826
0.05865225620520012
0.002152009960690766
0.04642470447512572
-0.06813333149769686
0.06826996260992402
-0.043194366239177544
0.007078953460724659
-0.10742533745825178
0.01676533584314699
0.019050866513858983
-0.08012815913005689
0.056763444626093854
-0.017189865759798924
-0.012049720098412996
-0.10431307101846582
0.06705974760428937
0.04454883924224986
0.014049995566664062
-0.0031936927807626604
-0.06298754596801269
-0.008184323084237171
-0.008696688198854396
0.021636915063913565
0.06566070900022135
-0.027895747864496306
-0.047352354007303504
0.03445222152085819
0.004937257351969843
0.08273019582416537
0.08225361171984893
0.48439075693873407
1.0149798424351362
0.568335143710867
0.03375902915690358
0.019890591835730248
-0.007181708337487812
0.008174738987462534
0.06706106956233251
0.04955439165529337
-0.029598404759996068
0.022965028807629337
-0.04839731330558997
0.06518564700677369
0.0454883217479851
0.046183689653144455
-0.04429252972289796
0.12120444646929429
0.021504611806687356
-0.019754485553644844
0.04180370593633515
0.017788567926251258
-0.006056384141097628
-0.05847089501090587
-0.07523808845677868
-0.0250535826374445
-0.007638281495477208
0.012480239593208767
-0.028775075543971074
-0.05038814585731012
0.04871334087151866
-0.001697805337822254
0.0906927625318878
-0.023948884427946838
0.005821997089227156
0.006300578946807092
-0.02864763139036411
0.03829002253933747
-0.028146214586364585
0.09332773348553182
0.03591151554439803
-0.029953800397358527
0.01158783354557124
-0.06538274046269292
0.038840161992199716
-0.03724704423158674
0.09352618109206795
0.062124898893611495
-0.008664262789984445
-0.06525902740768773
-0.08290949672124792
-0.0007139505433006407
-0.040470480814067455
0.010382924858935619
0.031569806191980916
0.03774295833508906
-0.05706006403881414
0.018566383700904097
-0.02599286234118759
-0.04957061403387814
0.007218557403924028
0.005901260744216621
-0.007372428482245461
0.04027801751508846
-0.03158828491217758
0.0707614726492134
0.023423928942694315
-0.01995839995906334
0.003441775756992966
-0.0710490419917386
0.067545913927172
0.03404120784467147
0.022602443778565698
-0.022023837555180732
0.034727472455591345
-0.090905773311688
-0.05017883173226714
-0.00563734906947622
-0.030969972954525637
-0.08618874301937274
0.0210883946152344
-0.05168048982317497
-0.0405521283543014
-0.0910695974600168
0.03295566479226125
0.0016241574152422202
0.021880586638806276
-0.010408213439519481
0.01979488636728727
0.0037831343385874364
0.05686400207314553
-0.003607095342722218
0.03794352816066135
0.01470838979634649
0.05985897377876606
-0.02254940573642651
-0.03965768610947471
0.031922512020095495
-0.1312042691073078
-0.01766890369166547
0.08880868186406278
0.04851118548961725
-0.030669834252897005
0.02479863757977043
0.02984404799169337
0.020866051925490164
0.0524982613402873
0.005387814233696879
0.010145568788563502
0.09565413212446652
0.01922129134170142
-0.00944315635244492
0.04505120463866075
-0.03365238975099854
-0.06343037783299853
0.026751666137765303
-0.05015519297905318
-0.012839902842674819
0.010421184475191983
-0.0002867507665565443
-0.06047270584439077
0.009070158007592906
-0.0181227219333519
0.016481025607367715
0.033833454592686454
0.08019260565309888
0.007477346068647431
-0.010955714751878298
0.048725809981974955
-0.0808697257811573
0.06525420656632035
-0.051079763550178695
-0.01287308622127422
-0.022207170107470246
-0.00312877826330088
0.0344234372880583
-0.09517232697336776
0.07203868802657355
-0.02911410578033298
-0.014783377481498744
-0.014905320391335353
0.041125352894989836
-0.034303499474011644
0.02908879825256507
0.020292532916711663
0.048968229713177956
0.0011220843661204547
0.03137408540608832
-0.01980748185454326
0.016460669998903426
-0.030727781194459375
0.02516206211500025
0.00993816034280298
-0.02835514423804475
-0.012600725208891826
0.007628673742880818
0.006453815836174307
-0.022268246870942296
0.15132538423250852
0.47439329983078526
0.9647852655527814
0.46828827161991465
0.09862083459913608
0.02987793583163875
0.003812612943723238
-0.041059725188734936
0.016089127638832912
0.059796163205094836
-0.027856057136687734
0.015014410359803831
0.033685900769589265
-0.022550332875752387
-0.02998509488022152
0.018075666145968856
-0.03140639651096697
0.01855561802010109
0.03361388127780213
0.01235769864210206
-0.06459991959621679
0.11137626654796329
-0.04963349528476324
0.017405577053405053
-0.013289142316414952
0.009289641953562718
0.07161418424239235
0.021903544528413272
0.04209669487017352
-0.04268670056844324
-0.07379854127782275
-0.015455320140553239
-0.014251602384398508
-0.004230387569997672
-0.012035303447773451
0.009231702766865559
0.04568372289416943
-0.013981833735639363
0.0011601829770201118
-0.1102063206838938
-0.0022906463690813184
0.06617864111722845
0.09662263854286139
0.09375674599398184
-0.013303672401040953
0.1143515928122923
-0.01536993331951902
-0.012427327494475065
0.08448744096252606
0.05843778052446827
-0.009051317692339942
0.0540753387533176
-0.01761408997035966
0.058958220333636124
0.06895920910527874
-0.04086071380775627
-0.0460159867874015
0.04212830724661654
-0.04311129844879646
0.028052846714062742
0.03187001823852811
-0.07306107603551665
-0.01851976522182296
-0.045209067270882274
-0.07137501020381284
-0.13229971580866481
-0.03827570736838672
0.020374271269717758
0.02069896615651613
0.02854171002094032
-0.010373924310068248
-0.01717503843126949
-0.06328024246484494
-0.027350830341916932
-0.004151419313100259
0.04610435868775406
-0.041395798468836946
0.024001226979792317
0.02292125073750509
-0.00015213888468496484
-0.005429666977366929
0.012619804936559634
-0.009463637686516436
-0.07340766527401878
-0.04553648022858141
0.009656413561015438
-0.027492939332639438
0.053011211375582304
0.0236740155957761
-0.011098403563028512
0.04442629659438374
0.011937472790958574
0.035307887138427814
-0.020209544595985934
0.014259446499106099
-0.02734197983473155
0.056742832854281625
-0.023698957627208
0.02149092921120207
0.09934649982664125
-0.04160919513655115
-0.007063718790618296
-0.04644950026370939
-0.07008963001820588
-0.049280566326703995
-0.0040071338980130254
0.023946453834312622
0.03642523169136751
0.0006387554179207312
-0.13379595727330323
-0.008890748977803465
0.09469740490957583
-0.013847149502641416
-0.026370774112113693
0.0069242783069274816
0.02750639929433797
0.006837240387644769
0.03169301621166897
0.04695383076484777
0.03312285642440536
0.05934621251273684
0.07265240962765689
-0.03877266526107931
0.0878981119994285
-0.05656998971970043
0.06013883726362954
0.026850725853106973
0.03079088421461333
0.02626871800106395
0.03782497632551213
0.009885773173745838
-0.06864386894617397
-0.026456376248603815
0.06271912708031295
-0.04930832845052279
0.023196355768849666
0.0016195807884603836
0.03737135111536752
0.015165321549293995
-0.05402574928223395
-0.01276463276774196
0.026335546726904344
-0.023413078893841296
-0.0926322901264871
-0.010939042763441575
0.0865844604638965
-0.03368909134741487
-0.08672269775671952
0.03223222060857967
-0.06851073046059422
-0.02054460373162622
0.052009237689515854
0.016974713792096283
0.030020076149315462
-0.012517042241410127
-0.11527854716654083
0.0748807341953816
0.47610531866394495
0.9514291677892793
0.520340945100508
0.17006870467425345
-0.004737021458720868
0.0330368053938842
-0.12699314316800012
-0.0068507134141627905
-0.00107363994615197
-0.04799296000684083
-0.055354446001679825
0.04096525811166063
-0.07080177441588469
0.061982477461424025
-0.02833477259801688
0.04806095646825488
-0.13299150485852526
-0.08144928876590064
-0.004431886713215937
0.09742649806819553
0.04023499796645695
0.007113527307338944
-0.04549673406138711
-0.091888566730887
0.024823581022221312
0.02628460213316057
0.0020321909436240336
-0.002969682004337349
-0.04801617499419242
-0.017904446083958424
-0.04094892816443607
0.001607552640666467
-0.026971894513861307
-0.0582155889652914
-0.06398922758612345
0.1094294542588305
-0.003089207619446622
-0.07655893245628595
0.028693881551516656
0.07061225292912786
-0.047598669187745704
0.05615849392014924
-0.05153456319719164
0.03518859689490831
-0.016010572835300423
-0.05350857091649889
0.08829644530333161
-0.05922295454125154
-0.013854097428222984
-0.02897816540564224
-0.046349463945525214
-0.000796782225051987
-0.0424698560555441
-0.034124195732901534
-0.02771049575987976
-0.023853625295285008
0.0004644048380590166
0.08484299024037374
-0.047042729882987494
-0.11866168623847746
-0.0582434033200957
-0.010434666532530256
0.0020902500912092707
0.014437587100685219
0.022232167731013296
-0.03673519838818808
0.037748779917948776
0.03352088817525229
-0.0433809301731385
0.017819607655265437
0.00887252472041841
-0.06064690607417283
-0.09582737062627911
0.0517000564317919
-0.07866987384163246
0.016180638507570056
0.01736281248525649
0.08466070114256503
0.012413407761183038
0.06518688044571584
-0.012828918552446049
-0.028616028702309077
-0.06562768209719466
0.016099200037549846
-0.013504609689801817
-0.03996485530861185
-0.07983932806118972
-0.01575280570939724
-0.05797427556469732
-0.08353237393986371
-0.038292101943449744
-0.054896364717784
0.006644663024806959
0.009659555519522666
0.0012677756899361079
0.05528776183337053
0.0009348748275462651
0.01174057701951641
-0.06769138160520943
-0.057060119129305566
0.021526597067275815
0.043738955304860355
-0.002133859605110504
-0.05467535992488501
0.03072207058808753
-0.01763326107699638
0.014953566350894952
0.14431551798274075
0.04211954842303941
0.00876706623080686
-0.055257943549181454
0.07539418295439457
0.022915591745803723
-0.020440852559879336
-0.005487305921211372
0.10514154215669186
-0.15727689556985427
-0.0037693839386408975
-0.033443335808562416
0.04032192891627703
0.055386963222175616
0.031063936811266152
-0.17612437867529007
0.049874882976131074
0.04922356204632544
0.13098990060730234
-0.07973396876317403
0.05073364039909248
-0.042469750730270914
0.006434578838347588
0.013870611126951949
0.02579113534394957
0.015086887755570214
-0.0792882980589015
0.08392380197955844
-0.1411311222754997
0.05186928682602879
-0.01652683170156556
-0.0010241311051854343
0.01700221931923415
-0.09165839865995529
-0.010137630482493042
0.0032944992439000544
0.06048585004677405
-0.008106821379586177
0.08707257283683471
-0.01517410667576393
0.0052255022312217535
0.0524076497599429
-0.01935613857221187
-0.04832252723967643
-0.04931675032776357
-0.03415593177562876
-0.01265752322682423
-0.01099909871752695
-0.056624577950065404
0.0010167167862685153
0.06097620678862528
0.5362414634132467
1.013328164182885
0.5205474293137449
0.10746546811412062
-0.01364142254516457
0.002406343166057326
0.013011273060362897
-0.019436244363219068
-0.056719108899932424
0.032040116125815275
0.020702439134963932
0.025399662874133117
-0.048157999601821655
0.03245118213660758
0.0403807262529632
0.02195796477686637
-0.10027205324537738
-0.0725942182906718
-0.0077097017925887665
-0.0023933803795612605
-0.010159311059936416
-0.017190140120097293
0.06752631735395608
0.017747527620191984
0.007766653215102121
0.04894903051743178
0.05589048473616263
-0.022210171874115486
-0.02507878945308116
0.031516066113022524
-0.04907022302305248
-0.002265173143234341
0.035339791153096364
-0.004300570278896561
0.0518451592310146
0.014374192632634243
-0.016199438170206883
-0.0385363639253453
-0.03611699395827745
0.047623726709053515
-0.004222697724954025
-0.06788741540731619
-0.03115574398271628
-0.0022285084475187587
-0.0762003685825092
0.015946871243761446
-0.015062226329887712
-0.05843848475954777
-0.09577871234609316
0.0026623775247208133
-0.02402747647593613
-0.09056403907494613
0.049326025164880855
0.05023442761437407
0.04182057828632773
-0.030524441637694896
-0.033801671503445825
0.02108919869691299
-0.011018172681643828
-0.00902962437220203
-0.012414320848413984
-0.011520331440495184
0.04883304315793883
-0.009408089077256543
-0.06260512722369337
0.022057303202747916
0.01758456489090583
-0.08198467770331817
0.09432724545045824
0.019734506164132807
-0.10859958194563289
0.0042119125651851955
0.03931613251226262
-0.028996638368670814
0.006930130150802543
0.010839686382030058
-0.06048009617685716
-0.025738178925637508
0.04632910294841953
0.036792444302175896
0.009575366174416946
0.008485770517553417
-0.004941640568227601
0.05026419048614903
-0.012652425248306296
-0.08858812451860085
0.04110002156946068
-0.01927502811618831
-0.036927498470840966
-0.008394574963192436
-0.03212835190776963
-0.034707657166140306
0.06149606976504475
0.03181716069179119
0.0378594899807516
-0.008316936013085974
0.027842080491241813
0.030488117478711232
-0.03723604372774851
-0.10944422593293437
-0.005168457623297646
0.012452036075961188
0.013968664063467938
0.06517198561164642
-0.0019491481360966378
-0.05482955809357414
-0.03292067877314015
0.026682582394652123
-5.020751289876232e-06
-0.038203249539303416
0.04144722011910762
-0.07569315226808752
-0.05362002254448198
-0.02019362376172627
0.09551666976020658
0.022356877665330187
-0.07688997543587439
-0.03986955517220108
0.0008566144983501323
0.04660760109190992
-0.07176418938829977
-0.022315441339377334
0.07030293430301134
0.07189814554192688
-0.04359184464092365
-0.029931428241210308
-0.1387912434529431
0.01875941606421946
0.04762740385269419
-0.055750043441786926
-0.060930738361026554
-0.02010087070381531
0.018937298824346346
-0.022507957586549304
0.002245342722639853
-0.003437750982826765
-0.006764427034375366
0.019795589657399984
0.021485004838915963
-0.05230405836432694
0.010607920566103324
-0.008502887654205924
-0.08736969193320375
-0.023221706416952623
-0.05993348273706032
0.0008790724520194268
0.0723237840503764
-0.022396594147783846
0.051831580676716504
0.040497931257905684
0.007403945697708223
-0.055066367734810606
-0.007209167117782642
-0.01284720839391334
-0.10516764094110287
0.03608282246387485
0.046146975848445446
-0.05877639922480962
0.12718891160621862
0.5235703543612282
1.033518519097329
0.5250402941621187
0.13829280785792677
0.01578654429218892
0.053635855193823835
0.016063467308544282
0.06574996290296269
-0.016200619495063524
-0.021561092217827607
0.00342622876092902
0.024000248376084103
0.03738372047876078
0.011104539810202164
-0.11839479613224263
0.017606514101076862
-0.08269621633217901
0.004302472721187655
0.008657133029657168
0.03861549294892877
0.022137525559328016
0.05129052833680525
-0.05531752386358843
0.07641195044921585
-0.05320128575810567
0.04385620290849425
-0.10684849382534665
0.04437787968801482
0.0011839659805190246
0.0412011815356505
-0.024616792545556362
0.01724533884289294
0.0212413781102095
0.03456446983132449
-0.06801515957028453
-0.0499989878520678
0.017363768026040255
0.09109733336963267
-0.012146536203244388
-0.07604282142729285
-0.13764236276771316
-0.044594564873690165
0.041653701582221224
0.02730485545481788
-0.0020898431955689513
-0.01287665749379039
0.04336847922859823
-0.029820654214945532
0.05745403519924143
0.016822416253909157
0.006560715297569438
0.02499398461355751
-0.004408992009017823
-0.075953837925874
-0.014611779078420149
0.0701842452796611
0.024762874452787645
-0.09576107777230293
-0.0060253523331963085
-0.05022154929095327
-0.02999972973305311
0.0035099108851870844
0.01616093531520127
0.06817322371939971
0.025371508109684096
-0.013910936512804367
-0.07458888076169694
0.16101907727775955
-0.06737900040621705
0.07984151747450888
-0.10084190169179873
-0.027237605258904923
-0.015464844934832557
0.06557639088520405
-0.02289134672941586
-0.03656710131416279
0.05181347962898765
-0.04545359012954071
0.03161397851873475
-0.09472908192549884
-0.0795987030901587
-0.029741594136536237
-0.06640632783979143
0.03797076864657761
0.04096733151460293
0.0446668166187525
0.05104437433126692
-0.019042514621427475
-0.02464884254335582
0.013128464309745212
-0.02562461358869171
0.0001732324080664416
0.046330580247884785
-0.01363763405833566
0.037790133330481826
0.00662037385263382
0.041063653422041865
-0.02048302501705183
-0.06340773827355653
-0.015247305518065838
-0.07833219223279764
0.016749380191636173
-0.01989893820311187
0.003688410514045433
-0.08002985169913758
-0.04665999518675835
-0.020871985238610904
-0.014250008027919068
0.052719872864672626
0.06367666649942608
0.036002326037000515
0.014144744973919736
0.04674212529679306
0.12303527880439864
-0.008435717703528706
-0.016268531475721278
0.024402764890085728
-0.04591505008001015
-0.00032543717167668863
0.04228719331867633
0.015498023306402809
-0.013919685360793339
-0.06787439271979527
0.034483438690285716
0.027548340626350844
-0.07997129940071902
0.06599837096500161
0.050075577017489915
0.027157472636572817
-0.08386968725636461
-0.02564451427410058
-0.021386805202677092
0.05116405576621419
0.020851425405025655
-0.015200105809564485
0.012559642527897374
-0.01392728097485854
0.023131342054152737
0.02761691458828246
0.017734810319315328
-0.1028552278362148
0.02842138128153885
0.036346851795819014
0.015440926346067214
0.0526852570013348
0.05420602685165245
-0.03262862529622781
-0.06801633979361801
0.0017292610121559312
0.018983638865547013
0.06732724822535331
0.013049004346307659
0.031280826823950815
0.0656213450771417
0.45774258868750584
0.9636711457350217
0.4587653030664683
0.07748934836509151
0.021760618063795936
-0.007467682785676126
0.044866884815734046
0.034100035317795055
-0.038806309471919834
-0.012297031693265814
-0.052277406949577755
-0.0733244920248569
-0.06949940657972412
-0.036461466211820066
-0.021644533680134897
0.05893493382802348
-0.05637541561555155
0.014569104630109776
-0.04440874101862936
-0.0825554772421257
0.04927143735222103
0.031047207894406945
0.08964487036347638
0.036953923888627484
-0.015224749645457843
0.019764399486954024
-0.013382677408584938
-0.012911247927120117
0.012408408332888426
-0.028273363807896457
0.006781864524220464
0.031444394889064475
-0.10581016852923629
-0.06775987725984377
-0.0482626502691623
0.01352759913582729
0.02071928862752313
0.0017226191029591394
0.07291270670002581
0.017403504128110862
0.05407180393768377
0.08425750840073143
-0.07033726721376875
0.013904987820181253
-0.029755138733812567
0.054960110250069895
-0.16534698902359113
-0.012742290717408034
0.0330175168482509
-0.007399130918083791
0.014970470610646101
-0.12405860090886434
-0.04920182156655138
-0.007607751224777169
0.0738921824900591
-0.030232951270319594
0.054522478267811786
0.01049600519410673
0.01136747734293194
0.08200522123043677
-0.012456837672714705
0.0643303656896486
0.009444663535579087
0.01906832099376697
0.08448512333550162
0.02860795151334283
0.011527359864725722
-0.033706569239033556
0.0024922017720973148
-0.056101059762599506
-0.07485525853314529
0.014353213498927883
-0.004523961218700939
-0.04923714533775336
-0.01988058910553767
-0.012212634175908642
-0.03878504072481206
-0.058395257769906145
0.06458939544778557
-0.05420782537727355
-0.08799069036346556
0.028828182838671126
0.011842969080659514
0.044288409504229
-0.041492336911528045
0.04275423862703384
-0.03692296815798712
0.05725643006909829
0.10874363373400298
0.000345202767919041
-0.04547325653504264
-0.04294190133359928
-0.0012184980369069182
0.02960446377316809
-0.011847683565086248
-0.02819370679119844
