ecg
0.03410526224029665
-0.03343169048544269
0.0040786297975646535
-0.05677426329667369
0.07741359640379408
0.018676177196851832
-0.023241800285664988
0.1327797387883286
0.5404009175393447
0.9826157732584375
0.42103838108545033
0.06328551650281848
-0.04746173778574084
-0.07497309844341803
-0.021985352765147865
-0.0012356073829898737
0.00445559967350308
0.07186641050408671
-0.01407491420222554
-0.08267651632467854
-0.016378108073706994
-0.05564468241555587
-0.013124458172399364
-0.025732108459939465
-0.03467548257693587
-0.005296109353850109
0.021324680688976853
-0.03878573037982501
0.027191640799221536
-0.006267136915126207
0.06560340594611887
0.06582295729407316
-0.08121165157402324
0.008735749415732078
0.037689890808413555
0.03971508023979176
-0.032271180926506805
0.056867357541725116
-0.042105190322742105
0.03690353618086692
-0.033512457766879035
0.0038757798706711057
-0.07193429594832704
0.016236316320220722
0.029154992177965106
-0.1129908330419725
-0.017246354259105427
0.06567061282697977
0.056510677595488924
-0.004499699728483014
0.021493784182484165
0.04264651379682619
-0.019952893204943447
0.03143806442793661
0.08068409013064251
0.011410154818715393
0.04254675334848893
0.10927247518803816
0.03768419214190796
0.05841006079978933
-0.06913000412369381
-0.005805696210280272
-0.054484906529210654
-0.03135597748351112
-0.016804889613568637
0.009615969238026663
-0.11338494119537153
-0.047527122238757546
0.029845432549250345
-0.04324933185396312
-0.09488131608943358
0.020822576143765915
0.019898013039777427
0.0026223959247523992
0.013832750835394175
0.027480872326231726
-0.05430486729725599
-0.08058925084260826
-0.018517733953900148
-0.03670720358725595
0.0634236393568279
-0.0903703797979123
0.04247332036099613
0.037210721191937454
0.04601166958773873
0.022936372334989276
0.028880234940628607
0.003868107914412039
0.028987336174098873
0.09631012286340568
-0.06082811002969085
0.07890265551794494
-0.032056835136854006
-0.06374331398634024
0.023317755168191207
0.10837444339799361
0.11461697692596398
0.003425089923843185
-0.07573946649886827
0.014990581785383792
0.038443312413686356
-0.018537321432517063
-0.004456549676789936
0.006360036496705641
0.04972447684723569
-0.06629351854583641
0.018580361832707646
-0.021235080289769302
-0.012749947018823121
0.020617568394822997
-0.05020718356364582
-0.005553039561021974
-0.020090902560594925
-0.03921649139569555
-0.036141414401013365
0.061701037090178656
-0.1068140262493153
-0.054581699536105525
0.05275701519100143
0.047051920172145656
0.030360952120971802
0.09709726724751183
-0.00887477697302771
-0.04110018741128459
-0.02561510506182025
0.009725636877203082
0.01611010685226725
-0.0847520790349461
0.03521204967602079
0.06270231604919789
-0.05235669537096589
-0.07463162661612148
-0.08649822817720235
-0.0315696604391333
0.012896946690792803
-0.056404130963782696
-0.04094896954062245
-0.042023134253151635
-0.021078147730984067
-0.03214299050928918
-0.03124247605907171
-0.025420958917106586
0.009411867171481595
0.07706444626810798
0.07856905666800511
0.0716393916176691
-0.00932714900744533
-0.02032171146668032
-0.1214107053569086
-0.011430204193608358
-0.033338244137437405
0.09705650503990165
0.09787680144004055
-0.08410569634130216
0.08284925511657835
-0.06469872465647386
0.061001049558329815
-0.05638202923783858
-0.044315499038461895
-0.08779147101433761
0.039106650532054754
0.12868301863134865
-0.029075221121999867
-0.020633207003936574
-0.026249205171316473
-0.020967600028366066
-0.03843415140124398
-0.04436402894789279
0.04065672550022126
0.03158087725620077
-0.05885814518435824
-0.0605237117044487
0.02794674268006375
0.03468517726456255
-0.030244155710694456
-0.0980089132032439
0.05695720683715431
0.015131367179157022
0.009872843719051415
-0.09440042298575121
-0.055441792322397127
-0.07843304262716037
-0.09641313044082125
-0.051366163399692855
-0.00973882576724143
-0.0752390233692499
-0.062401276147903396
0.020979653631230808
0.10235687586687936
0.0006030923645783387
-0.016599349141613956
0.06038498738337461
0.025908827956163446
-0.03198107084170661
0.05126652011058324
0.004039674258010818
0.008737449113198114
-0.0412624044895474
-0.02898768464163953
-0.026897983948097268
-0.0173580168147263
0.13426089788846618
0.4915107873989145
1.0725292056590972
0.4781151181410782
0.015907894988599888
-0.01242424478784527
0.006326088250164858
-0.10313438483536848
-0.001650037374426931
-0.07405092421432362
0.013854825459125334
0.029608579195668006
-0.003965697896897649
0.020014936539448046
0.037857884895343925
0.0545953652399192
0.07914831028428905
-0.027437294091256018
-0.008529546476291987
0.001706697722572844
0.07821428104345585
-0.014703397332487492
-0.006926047718889801
-0.10842973731186796
0.01454586106331898
0.05612119107786395
0.02074303926088411
-0.04112976399661589
0.06386930442082257
0.019999865069717928
-0.05786805967080749
0.015790035324464602
-0.046387556156586435
-0.025502719953436004
-0.09208786592223472
-0.04450474309907159
0.052768854701593385
-0.13360285503488964
-0.016637003778128875
0.09296696648994518
-0.047579226885173576
-0.03450420615874977
0.12692378468712504
0.002385168712884304
0.051050245890151974
0.07935271173463601
-0.012008575233937438
0.01850000191836147
0.018487873246795305
0.08094768563088145
0.020467284784983844
-0.0006758116000617504
-0.04310089063861436
-0.07113399424201064
0.06573187928718827
-0.0481352999809504
0.10189242831957107
-0.020769849745422488
0.029208039302328993
0.02130518330894375
-0.02374029425132965
-0.01144360739400256
-0.0016981823185758032
-0.05871785355491538
-0.043185349725761185
-0.018702324828131504
-0.003373553198783248
0.01226752072055281
-0.019330686810890514
-0.03229894558537337
0.007003899204620242
0.04628245846996702
0.01211562147355726
-0.06106730845180114
0.011262660460471419
0.052541611496857904
-0.006014761146914509
-0.009623042102675986
0.09535828166905207
0.0016987516364280503
0.009606463203378152
0.02120333731561407
0.00387249771066299
0.07043169409501632
-0.0013864612691576418
0.053288883926361
0.129153492736477
-0.019878778850951004
0.1520883454705794
-0.07253861437777394
0.0576540395512126
-0.02793051171588917
-0.11911126099525192
0.027574309217162897
0.04392825235777394
0.025253594126393133
-0.0628893795691394
-0.0735060550845658
0.04623824844906056
-0.020560283845495297
0.024801004264685286
0.003277759906506578
-0.04730708496259852
-0.0485331483083844
-0.08788185464419226
0.034622893004459775
-0.14362005924607985
-0.06723180872806547
-0.1279124671869896
0.08081563832222965
-0.032598420755440796
0.0032819993018262795
-0.023483204583086212
-0.0219485042024366
-0.09893949760711661
0.07100650640102145
-0.022744580831422383
-0.032484899458600135
-0.05436951617807813
-0.042848393992881005
0.034205355660502965
-0.054375230023946064
0.0022455422037146234
-0.01867234333723537
-0.007549266182633931
0.010788500895516752
0.030442431891875205
0.03456278439813828
0.041773094358949936
-0.03359949203764277
-0.0075357646074655955
0.007390953325496479
0.03797742603263082
-0.09239432506669039
-0.06308177012158613
-0.08164949618502897
0.05136188703353847
-0.008922549882532792
0.021342509118985775
0.024975868741583557
0.014887672520102521
-0.09863652619550894
-0.008033306941439498
-0.014486147892664454
0.01807172418304991
0.03685943801404948
0.022540138141726833
0.027627138464337387
-0.016443127984440083
-0.061331509543103395
0.015141563962761999
-0.08338649252043241
0.006366276114002808
-0.04052012561076403
0.0659954832162507
0.0011286543259180638
0.014785784268299691
-0.11000237272822465
-0.08209113875024157
-0.11572809602715287
-0.0009194411494715664
-0.06216287749347038
0.05869997995300197
-0.044917175993007846
0.00258273833340179
-0.02182262431524226
0.04383793688583221
0.0036835759554680134
-0.031011563545417887
0.02910673096639529
-0.020768246439275207
0.04201441730689517
-0.025576929051743514
0.043743346439245406
0.003263503028949863
0.02059131984785416
0.10828261255399126
-0.020465251293305044
0.04319893038716349
-0.09997863414642474
0.0625627015675702
-0.033514025715541386
-0.020961709064499474
-0.008447761081966161
-0.06647545493045919
-0.08921959961574516
0.02123047281386519
0.017916002419977196
-0.0022034408031648563
-0.029260447295590214
0.07284369090123921
-0.0038598533247112734
0.02481123252006742
0.09455059869780395
-0.04271665612764893
-0.020419227707059614
-0.006919708862868657
0.00981996518856794
-0.06139126128131486
-0.02803480977414289
-0.06623385812839477
0.021154867898657243
0.013172480562990403
0.03379615469408109
-0.06183121716968859
0.02849133245229419
-0.03533498318919592
-0.03025515302745296
-0.031311742917486146
-0.015337495585828795
0.07934946952476025
0.06716525461025123
0.04560309876789556
0.036003347758566194
-0.01913009780362679
0.12803893622722762
0.0017183348108149308
0.04232308192285423
0.17474099623423275
0.5198127380856794
0.9653066811980603
0.5082559829618716
0.12251923868717551
-0.0012152967894453704
0.041879687265072955
-0.03960303868782705
0.0020366977083825003
0.01626282968690147
0.0995558155037779
0.0031741421031951664
0.06524051114896551
0.061752911691594484
-0.01648829363716089
0.071679035587554
0.06652671731225322
0.03251662322096926
-0.04924031754727728
0.03296554900370124
-0.07903572516293578
-0.035741963612183236
0.056821352984201434
-0.020213567922663683
0.009478003848169847
0.02517450651612581
-0.0018719575234501969
0.005228817686072147
0.0879901465750653
-0.04536780606969332
-0.0029343469917298267
0.016189797800741524
0.01787641402577612
0.035275660796122835
-0.00551102323732826
-0.04418275771274051
0.07019307846777488
-0.03199498061053726
0.05673073674252245
0.022376269601825156
0.001566708988868669
0.010242926925530626
-0.06363948422012498
-0.05770762997969662
-0.015310649749017899
0.048734044413438704
-3.2100919826178686e-05
-0.014199990038062025
-0.09433025168433602
0.1242734047594057
0.05343050232302226
-0.0196537953711391
-0.006729707419933617
0.03532461052156046
0.017951495727495725
0.024146843219584005
-0.09330464148767356
-0.007060295675427149
0.05776068884415534
-0.04548686406900315
0.03984996496511964
-0.027142057341171158
0.025234520868568797
-0.03361802280450547
0.01487399775021573
-0.06831584301379881
0.018619505098192816
0.03553871733077323
-0.0025261094274387184
0.11554282445670326
-0.0465819721082398
0.023264041879072446
0.04943007752463012
-0.03088087644501545
-0.02787163611317636
0.05818809776811443
0.008133669808591865
-0.08040108442355821
0.07307142914634333
0.023617261463591617
0.006073516895344295
-0.028794728246462942
-0.024513221820005482
-0.029313282383518748
0.0029528272167223483
0.060755850264845104
0.0163981478668886
-0.035773957856879084
-0.0684567009608017
0.03190739675433458
0.020928602835648794
0.05886802350776102
-0.05238610741654064
0.11164584116992866
0.03629943815575056
0.00979133553358569
-0.008766469331113316
-0.03277740788883877
0.04172255697179136
-0.04218218042841571
-0.0038286731772453463
-0.00022269886228964769
-0.010575714583094593
0.021758551794000863
-0.08662175082913913
-0.06944338203828636
-0.0786980365372531
-0.031074428214374547
-0.07807938650265743
0.04657481030381185
0.12848858082049128
0.013363616419650127
-0.03934232035053408
-0.015823020136180824
0.00880218651951696
-0.005141388814250351
-0.08617675738511027
0.025868673529469723
-0.04980659344852041
-0.022047285996884745
-0.013146655851956816
-0.021875138376368553
0.044469504565085666
-0.029571090685825425
0.036792183628831396
0.041844351314560047
-0.02296168854554391
-0.004489182377796262
0.01193559744053011
-0.04554408460290687
0.046440524167475516
0.01445363522389031
0.05527805136614575
0.1126656266774919
-0.005236273172979657
0.00919928437626117
0.0046114836755730216
-0.05281968327130954
-0.028915488653245166
0.05924509149519735
0.0075868215193123775
-0.01547489648212862
0.04686552099804588
-0.04221464734245804
-0.06231916300622098
-0.014248885727933383
-0.07880940287543846
-0.0042631646395598684
0.00670891868882658
-0.029488906644782306
-0.018516507641898213
0.0010381425776774158
0.018455255556261426
0.07920497642045501
0.026639180967605283
0.010741405519771853
0.05256244065339151
-0.10531167420320453
0.040348620250880596
0.05560186338544432
0.09887368882553305
0.02708769033206468
0.0638133133413593
0.07067586816121853
0.02476825936702544
-0.001303363517865844
0.0011308822730956554
0.05190055962658872
-0.03106554774473724
0.037147442896525565
0.0247227083311079
-0.0549055687042265
-0.05849929869100308
-0.03324620918233441
0.05783085283230405
0.03460238760427443
-0.013459208382065989
-0.014024271387603912
0.003704554306599469
-0.1255487203741093
-0.0037982195327346535
0.05756816911597334
-0.02764314375982499
0.009240166159171967
-0.005490892840885732
0.018389066507437737
-0.014640243089727337
-0.021757454888131033
0.04901267663203328
-0.049936676466690595
0.01237428721441739
0.01551369600526886
-0.013570019707341736
-0.05780905818674292
0.09823610617910374
0.042060733510086254
0.02800315736717616
0.03909535818463528
0.0613151816767084
-0.0774553137457315
0.015146226312084211
0.14846250117268578
0.47743034683222885
1.0502398183940602
0.5911485649653913
0.20414464283286932
-0.0069653680812382995
-0.024351261329226263
-0.005416122018509857
0.08260110250612362
0.028797137562113995
0.014323219702567927
-0.05527939886881553
0.09187320700460004
0.021180580446969438
-0.08792913459545249
-0.06435190989636012
0.045979819499770945
-0.0018991255517375864
0.019130182564773945
-0.041366111054995144
-0.026913814952605638
-0.08180301609745796
0.030203612657321195
0.07250216240700706
0.07433892484777141
-0.05260499482322023
0.053338874303516415
0.0071408831345483445
0.0602459773227883
-0.051843567299220905
-0.06406898757672572
-0.027092757310229223
-0.030276636394860074
0.006326170358148875
-0.018153717828805958
0.014948818427412048
-0.017862480752990614
0.09356792846137539
-0.05052115027068117
-0.09332057833433721
-0.007403130096392558
-0.0031140592697585594
0.027287901170733382
-0.06453985502104824
-0.023095655092830084
0.040369776179453865
-0.011278007547187252
0.012019665877477305
0.0350898739148443
0.021002046647902384
0.018344763765856874
-0.0491925664816687
0.08577809308096707
0.00710328157319866
0.0256512502199517
-0.032412739376832124
0.035520978682253714
0.04250998995248326
0.020137076398899882
-0.007456191763221632
-0.06561579224415241
-0.022773493760370578
0.04926176391417726
0.023185858299925005
-0.07842519296483522
-0.0209394963999084
-0.05457774786950566
-0.00011546630637506121
-0.07682301662245244
0.04838936145228301
-0.003954331678229783
-0.018975041779641256
-0.003692243637773429
0.015398130738663796
0.06031762850723818
0.013791800011831907
0.04731220994795939
-0.13427898911074362
-0.04736597558053539
0.06917003922309778
0.004986038780628247
-0.020379332963747974
-0.10663391448403381
-0.0647590756303438
0.03030989203227287
-0.0664804374490955
0.02098426405620507
-0.025336802738482146
0.015349494471356
0.03514372884676879
-0.015547766045048603
0.031776599451861384
0.05683518863245335
-0.02596684896713419
-0.09277749260825933
-0.05213620578710321
0.03831675938152343
0.05926971067670063
0.12564257957131728
-0.008639365290501966
0.0007984082965006308
0.014783447733524732
-0.05240750302615746
-0.017599612650797562
-0.00963176726171789
-0.002643109461901043
0.024463935211850238
-0.017341467032770546
-0.021337912522464003
-0.07801061659249793
-0.016378846624336522
0.026929968734553573
0.08320861173543605
0.004858204884266041
0.031406609858763
-0.07077234376410947
0.05300740406088072
-0.06349053468045322
-0.044502470403598796
-0.03549268346609915
0.018419926361584044
-0.04112919382254729
-0.045545128230264895
0.013901004396332428
-0.03113855412930222
-0.07764661320272657
-0.017539415871076016
-0.05556687823586059
0.023281600811038958
-0.04939966380583021
-0.02609162935456019
0.05591689151055212
0.040622775329378906
0.04041510367932788
-0.029645852197176227
0.13649013448515543
0.04484322924777857
0.01658701714980776
-0.06903859621706761
0.05186429519530772
-0.0801179122018078
0.0027156109485963
-0.035784326291880365
-0.14496500999735948
0.058486738141035825
0.033954647817073406
-0.011305529950705087
-0.09423382537937752
0.11072398665417388
-0.02085527873167584
0.020466367722323495
0.07869569161086172
-0.013077650899234612
0.00408489948005903
0.013696091609500666
0.004461330456126222
-0.07337130525936272
-0.0830531525337378
0.004971387001873153
-0.012720149763728764
0.005786683356532747
0.003408449518929014
0.00695218967520787
-0.038197369720034
-0.0017466501979471233
-0.01657041197042907
0.08075753171342748
-0.021682673000960672
0.01791144963663925
-0.05159129406070102
-0.03402475627994257
0.027508215875922393
0.04561486587921194
-0.09665230755065277
-0.16114111878503085
0.0036502447420402144
0.052133450870808055
0.014148051999017495
-0.020274908025468837
-0.018646636617609985
-0.017296585518713704
0.044515768538009835
-0.00046550671215660384
-0.015381044599163072
0.0582470097600897
-0.010019055679720165
0.03742465857106737
0.03490087985306064
-0.03597378884167208
-0.03787265295100364
-0.055081200597279126
-0.08177937477179326
-0.015270976680048738
0.015762387962613183
-0.08571020341786209
0.15512048067049472
0.0786819915190858
-0.01213096116227267
-0.01447910507283669
-0.07361442975981868
-0.028589120088293937
-0.07750108400999207
0.02605146087071382
-0.028241016962638945
0.050424281077136014
0.021244289284933437
-0.029013734593946773
0.1254866856900336
0.5078613895560042
0.955196033923792
0.5096984355832007
0.06380954931082874
0.011732522191060538
0.0033931508009816405
-0.0844965289368456
0.050353939556537
-0.0959467704267756
0.018013722437441818
0.0617395731869233
-0.007797409817325993
0.03608882667707613
0.001629193912603261
-0.05433903564646985
-0.08286766354013855
0.05315738263076383
-0.06892714894817918
-0.08972195027622404
-0.0459894266755681
0.036957123950082285
0.016801364163649662
0.09780427299969918
-0.00037841752506051875
-0.03776748091379864
0.0651718201295065
0.006008173799280697
-0.001639381782576975
-0.04921379726931902
-0.003767857413749475
-0.03207957822006592
-0.0010664227425618105
0.05272428166920789
-0.007022670565916409
0.12235038148662321
0.007731516245264311
-0.02723361330564142
-0.020197578189419217
0.04868016892877889
-0.004297591787643711
-0.01122723549779206
-0.018512497875364003
-0.08401356877354746
0.006694470932633047
0.08575142310686144
-0.005313036344422033
0.04911288788227997
0.009140385029973585
0.09963365710342705
0.05299044560811344
-0.0037915893010833195
-0.01935018017077665
0.022042321222161303
-0.04620494879894709
-0.10996139145968618
-0.02638092061604402
-0.020159976698037745
-0.036001991406862804
0.018757659729211857
-0.0713316366284286
0.09319460160621845
0.006126567278644982
-0.0007102895215995348
-0.048438481429479596
-0.020397631369548974
0.020948493749697025
0.013699167326279963
0.04196058570417091
0.025784902783181025
0.01856558333554748
0.0103138075920319
-0.005612907320717797
-0.06053291787877059
0.017554982314220657
-0.009306701432435425
-0.02155333748255782
-0.031389203230292526
0.02063960673326669
-0.04117212847398829
0.07361275861767298
-0.04210060898900968
0.020781149833149354
0.029430019891879735
0.02292741881764702
0.09999550910966905
-0.0526827504096319
0.027679332529606405
0.00433100616601797
0.04416644352678971
-0.04407863249276578
-0.07866444533171957
-0.005837455509524907
0.023545114842130482
-0.04047994381328431
0.04478260646701562
-0.06841290173162931
0.029859107948201374
0.055032199409587514
0.009303681244409003
-0.1617911753181189
-0.02028602785189526
0.029895248561103784
-0.027542913017479055
0.08974940589915698
-0.07034163711982908
0.019900597063734673
-0.06322487569365624
-0.022682668102412623
0.006564667565034348
-0.015180722293577524
0.062329221801907746
0.08774270657359663
-0.047693379988908186
-0.05332859811984464
0.026660981274809748
0.0746147918446815
0.014187457981667446
-0.05816377695290127
-0.023644235382581757
0.05073871851265264
-0.017059650800666893
-0.0819443012521572
-0.023338046359809392
-0.04614488974655287
-0.02064683015144251
-0.03956455056226585
0.017140726142636713
-0.0811143011516724
0.009984782688329434
-0.011403068398900065
0.016701317384006934
0.06662956300368969
-0.016027511061395366
-0.050382456633016263
-0.047853455615742675
0.03921736554264157
-0.11270314649403675
-0.04159681377148536
-0.028167967903357467
-0.03400898339362678
0.0715457833267861
-0.07861385655523623
-0.07915120858180857
-0.002204700738181047
-9.129471393680731e-05
-0.08679566133930484
-0.0527234449156349
0.03603524432484811
-0.023412261892781193
-0.024650424579249514
0.05420537368964706
0.03284922188338684
-0.05169226312733341
-0.030764364757768465
-0.0037805113366078044
0.010125250612711155
-0.11910967309788012
-0.003919992970075235
0.012698850295539705
0.02784885672242874
-0.04140008835010722
0.061686823350408315
-0.07646970635040834
-0.08597437474749159
0.03873472864342607
0.01995943941454234
-0.043195113878946784
0.07963817455416143
0.029638775544128318
-0.07895555275679059
0.0035535879597754618
0.016661758926873355
0.056530933092876504
-0.040670034833801494
0.048822752053601426
-0.08446481770487618
0.06795528057524838
-0.028567156187632
0.00539752213668495
0.0696930496793151
-0.025798873430740984
-0.0071761695922141905
-0.06089865848044407
0.09087812870899728
0.03473746173749267
-0.04470076408549772
0.02511517918239667
-0.03964479585837211
-0.021373833333042887
-0.08378384046228869
-0.013826711666877704
-0.0396327925787644
-0.11620748462939252
-0.00928561841091247
-0.003924896815811765
-0.012901609456807947
0.07569631445117328
0.0502504620861426
0.008183369564578958
-0.06022743572923622
-0.03474844144924491
0.13657364576416164
-0.0616036234944909
0.04358263897412706
-0.0069724145712976625
-0.010649410731087529
0.015772007042809802
-0.06069945742787839
-0.02515011993629096
0.116113094682333
-0.0037516773303017687
-0.041290530512899944
-0.10647771828729485
0.0124335033603318
0.09186320629524387
0.48965951377256733
1.0053226094663645
0.48799224740850816
0.07693411137753361
0.08948192795238039
-0.05260244426462943
-0.0025674076821071653
0.059763426253924536
-0.020516204563944773
0.06140521163621648
0.10196185038009194
-0.07176201647678178
0.047298782815364315
0.009466251625727591
0.029255756709636746
0.0153557366105637
-0.001977965615317286
-0.025891669300403538
0.028231805701832247
0.0961705492165175
0.011829594918990122
-0.07809840272845621
0.029915255059355397
0.021691282237386506
-0.05626465528333574
-0.03542161828094125
0.00639661147827909
0.02399711486196852
0.08657749456460428
-0.05045645100950494
0.028679076118984417
-0.016556413778394834
-0.09986143563559997
0.013211757023647281
0.043624324237355905
0.014763759136127624
0.061079894681187755
-0.04331735258938022
0.009034525900333589
0.029414392829068933
-0.02664153383058653
0.015245045496662231
-0.1063529148698163
0.01845599791274463
0.008303371219606101
-0.027998575447026986
0.04076414070201894
-0.06498267008427074
0.034191972696041226
-0.07740903160956952
0.055067532306641
-0.01938513960909377
-0.024563258363781194
0.03211519787598467
-0.015379704943308795
0.011059181162206052
0.05217011496332953
0.006489109870994717
0.03088151812719754
-0.08697019600149912
0.02090549927115493
-0.008634392179256725
0.03997305639934525
-0.062356618589814554
0.14260554883452675
-0.03843477031406433
0.03310149240383744
0.052182570180954714
-0.052442251553526026
0.039251034129808626
-0.03778748999531201
-0.027597844136553407
-0.049655072701734686
0.008678150329189643
0.06274183794912318
-0.04473207140234305
0.010593195961876136
-0.004402120689028511
0.04065625922475921
-0.024547386168402158
-0.0625528180583848
0.031047713958982776
0.06848107806324914
-0.024553375271548755
0.09879817148691677
0.004610744998524147
0.045792767884576785
0.06796220672574903
0.006629419696281647
-0.006696402531607835
0.019384122038810972
0.022774385574546613
0.11580923704916564
-0.043782186811351924
0.00750264978537263
0.001642825680485257
0.01690629174033077
0.08824822153621215
-0.00761829978527166
-0.05008908297043085
-0.007106857644080975
0.026747549545547502
-0.07217730809831531
-0.02001786011643765
-0.06989201586769601
0.03675259614809097
0.036234582427485694
-0.05707939232936796
0.1124899525901934
0.014197322941422142
0.07747324565113485
0.02754174654181062
0.0033005517719001233
0.020584789834041148
-0.08502434591105112
-0.04029562339409896
-0.013763714395278917
-0.03003004787050242
-0.14000682078095136
0.059576254404225884
-0.05889798710283354
-0.10036567282745745
-0.0006733230404782757
0.01617486363895951
-0.03722610326637746
0.028447342362941358
-0.029765852177728466
-0.019623167964707394
0.00416347008761151
0.0029303219237032754
-0.021293209145398194
0.003966287486572875
-0.08342208626337021
-0.01781263790126055
0.06424581225982305
-0.10557350680320127
-0.023922328133729985
0.05787004698738532
0.08532892198489843
-0.07551664019592229
0.03586362064491857
0.0009241009776744489
-0.012550303896118093
-0.05135522439709514
-0.00016122483735135792
0.039850984183531335
-0.07417984275517768
0.009256742636303978
0.00943177696049281
-0.06179498420026323
-0.057397947616060735
-0.08149432544329901
-0.005447487747101375
-0.007715122081909555
-0.04964286904631387
-0.061164310759505396
0.12231273219040815
-0.07303957471406594
-0.06358054832380632
-0.022603882588528634
0.034993292109467854
0.02846277424221578
0.057524890981333114
0.08321731081592441
-0.08365898239104022
-0.13600853919676484
-0.10360042074415868
0.05016035108015654
0.021831227792482977
-0.06609625994433879
-0.006621009513109026
-0.02051510663123792
0.06816885670288352
0.050507140779558736
0.019501028153035577
0.005946300765695511
-0.08400040002238064
0.03571836467602047
0.034571624285736
0.09525734506675533
0.04857984897573192
0.02422611741573727
-0.06809898527939488
-0.036511872103489315
0.08110884534684193
-0.10504105030534683
-0.00038224380651302476
0.04623689074726031
-0.059217876739862944
-0.05920588708104068
-0.022128071304930278
-0.0719257008576679
-0.02504380625881554
-0.04105658297923686
-0.04643939488115791
0.05788718532402799
0.059839758575016194
0.03574735423243947
0.08497366807248811
0.04570689480610411
0.09846532686532083
0.02460765185883544
-0.038147317200172115
0.017674215086205407
-0.01302409223192572
0.027130402708620563
-0.00623391978586085
0.06327485261774154
0.16026524493650884
0.42796750183293003
1.0216308094519153
0.580760552953637
0.051882098914866455
0.05557200077898197
0.045785212280435056
-0.04074677827175421
-0.045661387511740835
0.015236736273521857
-0.010797920676567985
-0.08009188132752393
-0.0019336145740572427
-0.10549017966243378
0.10597876451035329
0.058180952084829075
-0.04378513331770219
0.04189771556439249
0.05653324898019549
-0.03267448989885038
0.00954373328114966
-0.02489184861235024
-0.023403360504697497
-0.01615906486973868
0.007836013876059079
-0.005000761394150659
-0.05741257665057266
0.06298072286266741
-0.016135211388412767
-0.06125911440612687
-0.0065510170416284395
0.07310865237127749
-0.04242271087083119
-0.05563909803232582
0.030928687306315053
0.005764307099051417
0.061106090259595174
0.007705250976166005
-0.0371772271191717
0.019863059171894754
0.03229700159418356
-0.0549461340202157
-0.013018664272973234
0.024951975867788773
-0.03377877615793049
-0.026683501071689177
0.05318728448697416
0.0346360982277144
-0.03573376809723857
0.127326151264573
0.03428041658705415
0.11438144335353158
-0.048920028249195384
-0.06526257470390806
0.02430836240162569
0.010900555909470156
-0.013999002849623627
-0.05416878934614583
0.03895036094688543
0.0759541664415247
0.05093202987796963
-0.03362948115526792
0.009755835803656285
-0.01107515119704075
0.008594875510526288
0.0196903208037095
-0.007769004827699335
-0.026427196554138967
0.007728042827372778
-0.1005129001892705
-0.038200683298225874
0.04961749436130114
-0.006918836583302098
0.053476106587599596
0.045000872950478485
0.019686241384435033
-0.02916885215184962
0.0319785962187385
-0.03064910249791652
-0.060082543971492985
0.006565616195519049
-0.07212750453209568
-0.011212836882306659
0.057006122516187197
-0.006397072568642268
-0.06920383735795325
0.04500960281919797
-0.017105387876139765
-0.05516359541653172
-0.03892882290008881
0.02414791214505232
-0.17475593152273475
0.04197641673724628
0.04135447421367833
0.08256227777234114
-0.028413269016986372
0.0420377716346788
-0.005054433349730645
0.03135502090748539
0.026961221666573817
0.05553949859294047
-0.06810577267433263
0.0315911019262736
-0.006453308827921282
-0.021645069810233106
-0.09730349473192078
0.05015438325894857
0.007491423626849413
-0.02663975488085145
0.039118105460933
-0.03454906280014979
-0.010410898071773773
0.012522721867587908
0.05072778781182416
-0.06407147417454119
-0.02061226603066818
-0.028046506037210678
0.06029849006108026
0.0769075782946245
0.1382035892290346
0.01711391233412147
0.011379400731924406
-0.020960429688552742
-0.041957931970764265
0.03176927250562447
0.01804678234147476
0.037913722724762476
-0.017168886576092533
-0.009368246369465517
-0.029328476131848625
-0.11857050819884359
-0.0105164215925486
0.013250691913239007
0.027203419182264783
-0.054906672597844375
0.0008983483215979747
-0.012945080062909082
0.053013837946563336
0.13986888936188346
-0.023467857988025774
-0.07909875743076324
0.03828397961079799
0.013363558962549064
0.005969654056667993
-0.037418353838734535
0.08491528837912765
-0.011057671027673193
0.011922686208780921
0.057109683973642036
-0.03191900255678399
0.03232412828224946
-0.015679015376092453
-0.02566667472476495
-0.03433444965913054
-0.005636375125023868
-0.016146608746601673
-0.1037912216060844
-0.05889563489284995
-0.009837391809540132
0.04152594021635072
0.10643038078663834
0.005931721209553219
0.06200745396773969
0.09435227995204193
0.05270479483140882
0.04698018532422033
-0.08134103787327274
0.028093222988192307
-0.008402347906433951
0.020110805728460062
-0.00824043445115981
0.007920951068176637
0.012285437678008316
-0.05597481790040379
-0.026239538094300498
-0.0639836633453103
-0.04395279013958841
-0.06932715872785143
-0.041441941523663484
-0.009080780785148755
0.026851282501088442
-0.07188371794072539
-0.029692016353514185
-0.0021920212452959963
0.0626712718378292
-0.028547423794767546
-0.012613485948503306
0.04791044981459297
0.005695029603887886
0.042771983414479256
0.044031463844567006
-0.08788166618360617
-0.06035019118129992
-0.02284838213271737
-0.05042682447964045
-0.07875065287739608
-0.06908768677535564
0.07341974185268046
0.032855451510755966
0.0224993531885789
-0.011194192713683127
-0.04358207986451843
0.026702135373172543
0.028177854440472307
0.09901611476996772
0.49571302171312054
1.0169829455456514
0.5186408104659093
0.022813836522166467
0.06364764587479003
0.0567277907780224
-0.05151864445997885
0.04367624275539727
0.03577985917846505
0.03439264170373107
0.02370386194000791
-0.024242960663293248
-0.022704779451460516
0.06537860413726655
0.009714957166026373
-0.004903481589289424
-0.10539712011623137
0.0015126376054536012
0.048627528499475714
0.05630055304058356
-0.038369839229187415
-0.00859949993963727
0.07705212779272355
0.04171855930540991
0.006976267656328513
-0.00529301455143287
0.036395034761663884
-0.03878642134594713
-0.08206852459704311
-0.004359426552322692
0.11159419998017886
0.048047584988516606
-0.004824347701288034
0.10001896664860387
0.04201685397373972
-0.10470717803399915
-0.09549777381466906
-0.013338005864683847
-0.06374986099117529
0.09000373385989979
-0.05645651743572077
-0.08414668245809448
0.08020890612721202
-0.04788694403018712
-0.07254094014297678
0.020110224096843588
-0.009568234083013662
0.0511502006613575
-0.023729950855173085
-0.05485282818996268
0.010234594233245098
-0.037954944709804664
0.05163301919938565
-0.06939668285394633
0.023120796720638728
0.0351193583501215
-0.015852625996372976
0.12056210000809593
-0.08463430726338372
0.03786200775085047
0.031896370230666264
0.013481923894141433
-0.07506292629305969
-0.004392177950082568
-0.06762440359732307
0.022331926007038552
0.09363735891841174
0.029873978524710926
0.045479209993822635
0.03521627167794864
0.040460055851717316
-0.04887233369780161
0.07051154771512161
-0.0499562550240456
0.11378140845130053
0.01888262662020667
-0.029689830269156354
-0.11957527106948569
-0.03317129853417324
0.0040862319534607635
-0.03808978202326735
0.013418198231887469
-0.11321606410069661
0.0007181622076809376
-0.040112788284789126
-7.767704266232769e-05
-0.011258087573120773
-0.09062237851172694
0.0246655493528198
-0.004234091255837064
0.03983128947035989
0.04615592665714587
-0.06349892047501914
0.008862000106479728
-0.05721011577196137
-0.014533224006073597
0.10676198394793811
-0.07460487977256823
0.03845222669486778
0.10813662864599566
-0.018938203081781495
-0.023931673661238113
0.0757721954296458
-0.019902382213390094
-0.03289246900402584
0.06998796659302227
-0.03807795770690932
-0.03849889685214733
-0.0487316894330618
-0.08163812522131565
-0.004336556757081379
0.0009315010669734558
-0.0033894097089085386
-0.02602771551459193
0.012806887127705972
-0.05744086806854814
0.008833390859289211
-0.01020366481669443
-0.05386301609547123
0.027763935536682428
-0.016884511883549704
-0.029922005235948165
0.07012424968353664
0.05173496744934447
0.04090021527554927
-0.04239391756307826
0.007015249394555181
0.029783002155359197
-0.0980164357759037
-0.02802946618069383
-0.14721995484158307
0.004813189564917093
0.10007223067702242
-0.03561798698745616
0.12295389868873088
0.01638834310627116
-0.021923311245546494
-0.06335491185851279
-0.017566327929897606
0.09095076141015247
0.03065686660671423
0.04210202397423432
0.08587582551451942
-0.0022618139905058675
-0.0998532771247692
-0.04407223617788884
-0.003232902854797787
0.01719021361615727
-0.059832580089228954
0.06494705781317787
0.07626018413220692
0.021048700489683422
-0.04364645476747186
-0.022836240985986234
-0.0027799115216139763
-0.011603591046969092
-0.03088415947291494
0.07482225026916871
-0.10385595348895615
0.020616982929632235
-0.03920471994746173
-0.01381448213873137
0.05759168896370418
-0.08174708997090903
0.06321458163041448
0.05288208832522437
-0.013866614444540652
-0.0024169862657688118
-0.04522676282685771
0.02943654745611033
0.04714139141160674
0.005898816209262634
0.04549863753304435
-0.05382953559135617
-0.03343674675857354
-0.010259476413734132
-0.036425707180290375
-0.026856035663227213
-0.11245465355827816
0.04171266762084089
0.02495872160483652
0.018228759471537567
0.02155552404006507
0.05618222255291627
-0.014861461191321505
-0.07272054908701482
0.022254985107576564
0.011723641750393915
0.05060429141314915
0.08491769692881869
-0.06002882388110972
-0.012810350887304749
-0.059685822068802165
0.051360204208445275
-0.022779097761452274
0.04047908193344738
0.04960343204709382
0.015701884679738164
0.06719327844156513
0.04813085642730895
-0.062297311980743286
-0.03967349703002799
-0.014809905846188196
-0.09576363031519143
0.030227688205213016
0.19023984470782992
0.5820832851514559
0.969092572321613
0.4807563131029409
0.08873775569932624
0.002652839356283757
0.08335376448713407
-0.019589820093702682
0.08133795298626655
-0.018681058937367736
-0.06569062732310009
0.0653353738813289
0.029737883042583804
0.04006093114024577
-0.007566693261084118
-0.02261400150772612
0.09818627295274718
-0.03615219510038197
-0.08528376207849972
-0.09327274701934657
-0.03125444940702684
-0.15668827190578916
-0.01556763350617012
-0.09161548480888249
0.002547475455603628
0.01740108182927833
-0.032354289913537546
0.14430216788944913
0.013223846451354876
0.004354577819918672
-0.0012589043039115306
0.06544543099568217
-0.07426601392626787
-0.07089959942612646
0.0032124230007194218
-0.08184474158261813
0.0010232650861122462
-0.02448529369504718
-0.057685024612823745
0.01620865539464053
0.05360330160344661
0.053318754142944326
0.06710803259526467
-0.009883173319913978
0.05557641563264666
0.04313450116871035
0.010603619909976492
-0.023060407672531938
0.02881155187001161
-0.008726809483558478
0.013954888223763407
0.029418095376814803
0.03995304290154066
0.07716610979512799
0.016444060847157254
-0.043749602873158135
0.04796447284870309
0.06448473062548853
-0.0057244026203241314
0.008566273605843472
0.010898401450164777
0.01821312993195401
0.02733791696079836
0.10123715920528664
-0.06205329884343953
0.020966953019642146
-0.005605440757280225
0.08010959082545543
-0.0019499829147997122
-0.011387657975409218
-0.023080768273316253
0.02029401089324927
0.0019408591701861354
-0.10070563875685784
0.025410244710007874
-0.025336983428872573
-4.781183419912099e-05
0.03658273629933023
-0.06230071934379988
0.04966247730780906
-0.08718535453432946
-0.006095023857072526
-0.0534692043129763
-0.0055028893111102265
0.0024489472795948992
0.05210396458188976
-0.06739500516676504
0.005174754391202591
-0.06277925425162842
-0.05701192727527485
-0.03690694064408689
-0.0627117665368434
-0.044758193507809865
0.01614409260991999
-0.015368513363441744
-0.019790778085983913
-0.04658849559577857
0.08510416979567195
-0.00804827127838424
0.020671905010061206
0.012574343365124724
-0.019354444829516593
0.034486503115966655
0.028017491417807846
0.04227287604382032
0.04412556809576588
0.046507279978691474
-0.018213775389303192
0.0021508271423095354
0.05422327776290417
0.0975706097704096
-0.013234883789651514
-0.005603412495706949
0.03459332232148215
0.05223062379632968
-0.004049831841177239
-0.015029695611365888
-0.024279128384737093
-0.03485400060891895
-0.004217790594167703
-0.10857807031815708
-0.03350344991572728
0.00729498666889528
0.0021736559501526645
-0.03135656472724386
0.011861171732095943
-0.01708103417805039
-0.023255391277414987
0.09121265196044637
0.03013468594028115
0.000376126514797016
0.030072992819067536
0.029277838148386116
-0.055327297211366804
0.09939600955239034
0.0794884429032538
-0.09869375869155193
0.023734109375509405
0.07593838757827398
0.14599441468839738
-0.0244134502881088
-0.014764931128182935
0.03600918864939052
-0.005291192726062658
-0.0459928372314449
0.01209394341117237
-0.026417383559769744
-0.06108289728203081
0.06839563793843599
-0.024513947423923724
-0.09016746384588756
0.019957356183793844
-0.05236576724436706
-0.02752649948090226
0.04333541652966098
-0.02101031675885325
-0.05624992764529815
0.055210168797819495
0.029396651841454742
-0.02072326338536766
0.11718240063277632
-0.028935786070610904
-0.007513853855988662
-0.06057149736153153
0.010590411388690556
-0.017370070979763293
0.08606422359392298
-0.015050461658992615
0.014281471246769482
0.04454069339415012
-0.07394559116001807
0.08833796702342235
-0.0674408826945492
0.011006483254837976
0.039340965520873496
-0.05233095436673836
-0.013088345698078145
0.01260758244465696
-0.06541358271177765
-0.018315559927921825
-0.021510386104972547
0.03682386626098028
-0.06004468871361479
0.016132430622259133
0.006884784105008467
0.014508131659675218
-0.007550398686289492
0.03534105058237558
-0.022455061903780653
-0.04548735277792982
-0.007602795222005821
-0.007604099893879075
0.038610601880849804
0.032707928233151384
-0.06309808854667064
-0.02755067065357615
-0.05575330999086989
0.01942448988102834
0.01641532855961148
-0.03034595556200579
0.033707756035826
-0.021474956318065605
-0.04504132650627984
-0.06832360507114255
0.01719008627492735
-0.11616047626062248
0.007515096078187205
0.029258315029254037
-0.11304130497444836
0.03771010543437912
0.03383210185769136
0.005418086588989679
0.49774840122626024
1.0136407031240768
0.46082240292080523
0.08196220314009517
0.05801965754669282
-0.046453154922046956
0.024454040715716337
0.06902927403481524
0.06238440482439838
0.003981546055111746
-0.04321708730388375
0.0022224056899756645
0.05788499863155851
-0.015040998020698297
-0.020447348477202653
-0.013986576867844054
0.023150795666532976
-0.019798446536833558
0.014383973624668074
0.0194399308533095
-0.01678528324731644
-0.04103487803471676
-0.07632412918266429
0.12069374146687727
-0.028655890795584196
0.0487703724288416
-0.0062036905153934245
-0.11963489517597602
0.0991115284363896
0.021351350340123577
-0.06485415175163631
0.024636077972519432
-0.06277523497220665
0.026095410221427275
-0.06778238864094582
-0.0003766082751421337
0.05897092343541648
-0.04394340838291849
-0.0836705077860287
-0.00874570307622783
-0.014929348154630793
0.06806397495236459
0.016042644713377283
0.0018637967267554516
0.017977378775384835
-0.02703222517504486
0.03083629907694288
0.0197592457804105
-0.08877360090308463
-0.027645495996132526
0.03519110558268973
0.010390704443832654
-0.06090787570853201
-0.0814066439165072
-0.010518986768596347
-0.041846121914168546
0.04890726581955713
0.018730310611449152
0.013766835408421697
0.005507735529290626
-0.04286560660633713
0.01706295266437331
0.029818518837550524
0.030597592182794467
-0.0560443590780739
-0.04406547094986325
-0.004828534995447944
-0.004574236175374508
-0.01526836925454139
-0.06919194344824249
0.011837611996188543
0.03622448639136198
0.016625432476418074
-0.03527700944934455
-0.029590670270326698
0.07916750440682913
0.025397827984086824
0.05359174927659752
-0.02403601299109956
-0.10452781405431961
-0.025399437175983693
-0.007289146208840189
0.06847982141007362
0.01832620026420195
-0.03442777858120689
0.04880467566590423
-0.054087472971341914
0.09335406925730119
0.048356735290353774
0.012459911870897372
-0.03194233644034832
-0.07078330732062059
-0.01769898180705691
-0.05178219892095174
0.061079556072792765
-0.07035306487885952
-0.04169769487639738
-0.12313040918600444
0.028390117735043702
-0.008766724642863006
0.045130110108456016
-0.052906600979433074
-0.09020373316275257
0.0007644295843956526
0.056212484946306276
-0.012690340504647735
0.05077187703202261
-0.08009773396858619
0.002866625757981337
-0.08017503514499302
-0.019006119510208426
0.02927439054915419
0.008765857057306307
0.011102350105068855
-0.04462602815367763
0.05270578574435743
0.05978368955557838
-0.03845471985831511
0.046406167007552776
-0.002404769789367164
0.05131158748322371
0.0184027843678461
0.028031238178610852
0.010433428748729854
0.006367221146322131
-0.05154133848539425
0.027358564658304593
-0.0348594737835657
0.050506823997851995
-0.000776938167714564
0.004158890380776179
-0.07220409697154805
0.03762289230673722
-0.015299628814656484
0.07668694879397538
-0.02471667449360966
-0.004660995989824044
-0.047215430230385644
-0.046339013229267006
-0.0036040822239382696
-0.1280357813228695
0.018436737910476297
-0.06575147532305495
-0.0954206715905117
0.010981320175073321
-0.04957653225175605
0.021686298677692138
0.03712887922215256
0.030960485178679966
0.07014877243257386
0.0003689332176498177
0.012008405565677767
0.04408088165266358
-0.07711027314727342
-0.0042813179727065435
0.04119722013047952
-0.02062434024209574
-0.034958506881571184
-0.07268223863394903
-0.04351263641779407
0.049080647884146976
-0.048771073096464945
0.01904919844674999
-0.05013898127189788
0.03582830378066973
0.021418271653153076
-0.004276385126258669
0.01987943798270694
-0.05824332976867838
-0.014881279031846285
0.004392918248811438
-0.014368392009782523
-0.07225808026591145
-0.03692229354386396
-0.012799794398759865
-0.020789945419988017
-0.05048249648081567
0.0019747391461417733
0.036054374075425284
-0.017509685072194726
0.022308109702975153
-0.004605813327914286
0.04734664010298864
0.08449932371941883
0.05240849847119699
0.04965104823970022
-0.0013531511535721987
-0.008039129970839585
0.09567006186781914
0.021660850530639104
0.05199399066944291
-0.07945089593092382
0.05572998696969509
-0.07483857536196822
0.055735123995110714
-0.039428812712925504
0.07253022262967758
-0.00880279803735799
0.006237274323419702
-0.03500205856006768
0.08340137478966372
0.14098911340434483
0.5592360155113936
1.0108573895078317
0.5664570488919023
0.058984683308201453
-0.023106407319245837
-0.04721020598764606
-0.004983465784203826
-0.009265558714093423
0.05038628324175686
0.018070767893503144
-0.09437329466213419
0.02803249797508897
0.029573840999554638
-0.04342254878433328
-0.12177376174969096
0.060277542738873736
0.02192150131655779
-0.035346515613219734
-0.0757037698447666
0.0510798478154883
0.03609207286607159
-0.10438168370666193
-0.1046788808899343
0.021774263320378497
0.03696653078822046
-0.04524541937259577
0.008264425649386785
-0.0345137518967932
-0.02344668941548169
0.022832748917370114
0.034690128205557634
0.03162882541927287
0.04222004826169187
-0.08210863598732766
0.0451876125202409
-0.0776426333083539
-0.07743790143366464
-0.006529957954404849
-0.037142571681773956
0.039946788264736466
-0.0391052078696463
0.027171111409240157
0.03943333402915326
0.10532104811410142
0.03610131426811299
0.0745753278750344
-0.07196318873218695
-0.04167318964057524
-0.01850123649870678
-0.027974399713951548
0.005306799560400112
0.008172003111598677
-0.00989541255783519
0.024006447214064877
0.07410747535263566
0.043657769152456526
0.003959479780556295
0.023292255973703522
0.023948955073351236
-0.1051508387171787
0.019577182594460618
-0.060272256713961
-0.04349205875075772
-0.017288602982859943
0.06496076253019666
0.03966046277169945
0.06699095502822143
-0.08849668955748713
-0.06853785475084083
-0.031960871159695446
-0.04930898997264076
0.09660593808139108
0.030429950019886583
-0.048521301554520405
0.022350647102318037
-0.13498731706334696
-0.04405720693037577
-0.003615930000045299
-0.07565231287528085
0.026126571094601682
0.08008981450966278
-0.04443537779996927
-0.08529960302098062
0.06210216394192273
-0.0415173348144626
-0.0011567844079110837
0.06969194672948993
0.030349197090641558
-0.011764975825357368
0.005592980196839143
0.02274100122588995
-0.0987669692105671
-0.07830368363635794
0.045538406429863454
0.016607410871830562
0.05072144716756405
0.08795460700730706
-0.04496217044479603
-0.026392234885255356
-0.025002287818055476
0.06985043528114197
0.0565149585963142
-0.08113159390352424
-0.04901900742972707
0.05450735242972807
-0.0053089013811681495
-0.015897374571014502
-0.013445492623970785
0.033357914797017794
0.010029480167382891
0.051508798427156846
0.03589833303534814
-0.16084512822872232
0.054147433153790614
-0.02348913002420667
0.003860724034188975
0.10999228946582576
0.024147970029744673
0.02332991838577797
-0.05033358634234573
0.08734000318152839
-0.07546124748673196
-0.0738023780361623
-0.005260634736490695
-0.11844647935741236
-0.04000154922279963
-0.016042223534635868
-0.025166815448311577
0.02402313359714585
0.006045306729506476
-0.011815324721302298
-0.06061408581254574
0.0059874830650341595
0.026895145083923905
-0.006317400480812173
0.050812490588606755
-0.02763467063499905
-0.09224647024804888
0.01231561859569763
-0.06290969621526994
0.014235176626034905
-0.019361339951163948
-0.028790249322952974
-0.04246486807693251
0.025087738609317872
0.10211659878714352
0.0055987611873104665
-0.05805989832525672
-0.0720565490426334
0.030468864972959905
-0.004873573561371307
0.08400780805176683
0.02217244063183954
-0.04091627249982049
-0.013864853982672946
-0.08748734728711412
-0.022662714958223543
-0.003639424152953359
0.004019153938773673
0.09660741270562984
0.028122504988297378
-0.04402314796017229
0.0007297636946060488
0.011338752267794126
0.01032832064993728
0.0604215380914827
0.013009221170876032
0.02000562813310107
0.050122056254280456
0.028795754255874134
-0.010628708505607291
-0.03061281232218782
0.07852582727287676
0.10530812479139873
-0.021115678391602367
0.08799140425194497
-0.04860748226209044
-0.014977311559915552
0.012031872866148399
-0.051693513417420435
-0.0008444721758715066
0.016023169612370353
0.005939094056824465
0.012307079869060598
0.044496301081951975
-0.015856157009270948
0.012955529117483558
-0.008563733142407234
-0.02554679999173841
-0.06065358634292448
-0.05758451193536756
0.08552904325710302
0.033971074495112226
-0.07010321853213392
-0.04399529042521253
0.06980843500933868
0.01445926925931576
0.002798111699191092
0.04916416317364403
0.017885650117656852
0.05919602857505867
0.0298413779441538
0.0754661502639782
0.05909370948713948
-0.05400407324271031
-0.02370228568821908
0.08841860830324161
0.0713065372960036
0.05737188731151811
0.1138771282146997
0.4670325721686056
0.9821459403826335
0.5176687425837376
0.11018740160727901
-0.09278572544487729
0.08897274962359043
-0.014490317154301803
-0.03393538355598285
0.011812957649198385
0.02396278674513724
-0.02679262795269905
0.05583202133908012
-0.03857428445219466
-0.09322487349333497
-0.049218707064492606
-0.07521929254093089
0.0060299937500578596
0.04414043617347518
-0.01806510722535261
0.05856641778899716
-0.002075062045846283
-0.01765001755099848
-0.03149548876427282
-0.05082883876899233
0.0623980361875631
0.013351831245096066
-0.07805481469154527
-0.07255684812767273
-0.030014736010479756
-0.005339245568760376
-0.019840656957177225
0.020763474264637493
-0.0026013095073505943
-0.07284231866955472
-0.014586530707681566
-0.05108370045571984
0.02083011309178476
0.014109445965770642
-0.07376170818103893
-0.04262909732924286
-0.04255585433350915
0.03594707593808066
0.05968829724902213
-0.010208990198104277
-0.03402438672639401
0.08193208218741566
0.03835496037033552
0.01669708985524957
-0.015168976884531508
0.013668621094334032
-0.07034928463468042
0.049770884289243686
0.08872470904062706
-0.04170021393568571
-0.02777248355238947
0.060139748064075016
0.0047727242571658154
-0.05614659423192539
0.08290237881618076
0.010769942282054476
-0.03695381156403697
-0.08413446944700309
-0.10807579142354076
0.004576642791729403
-0.03995350125735829
0.016161712876423463
0.09918068876157533
-0.08563588654187251
0.04433955580043365
-0.01817279089372086
-0.03586745494085645
0.17219969437760194
-0.04557479802676606
-0.021560355129981047
0.016077936524953852
0.048488151540607705
0.008972521811054448
-0.01713750274512753
0.07706052112633914
0.03548733156841557
0.017055106137670698
0.058685861888379404
-0.029770141897700567
-0.038151441565221864
0.03244766033003217
-0.04031905745375655
-0.04568334950352379
-0.05430389203072056
0.039388663752596066
0.03830678022810766
-0.0035379868534205676
0.021643075569229505
0.023621544101305278
-0.06461503941809593
-0.0067155010316294885
0.05655989300612975
0.005594520189170123
-0.043132609589932876
-0.017824766661804766
0.028209046924105582
-0.050010015036150074
0.01569617181036381
-0.08021095235473304
0.07638822847221911
-0.09118437106862248
0.08941930166601753
0.09288883791747309
0.008286485581322752
-0.05178109827329235
0.0037187569801263014
-0.026180118730100843
0.025224868310569457
-0.02530833612375586
-0.125492677377465
0.036102038159106634
-0.004601607324635745
-0.08498028110060706
-0.03983301183070841
-0.06960411436313217
-0.06895198778216437
0.05937174451181668
0.017478982985621682
0.06738828170270077
-0.019386609095212663
0.006663943385235369
-0.01488804139281772
0.04646812810510927
0.01583886928375668
-0.029906296610523422
-0.04270771702843929
-0.05253436420550498
-0.07136050461819819
0.014031736838006046
-0.000843516517697372
0.04576246409274365
0.002173692166192661
-0.03707682560161918
-0.09126654286860404
0.00974105160526026
0.08614966515615921
0.005131920514433927
-0.0061542477229809016
0.06579665604334277
-0.07273138437035874
-0.01921980684483178
0.01542002092881245
-0.037310612018629355
-0.07282384262312899
0.023892691887423028
-0.052684291437981846
0.037485452602265594
0.016168378568235796
0.05072224044773299
-0.0506489791497456
-0.011819031436196288
0.029422346099926878
0.05983214263262672
0.0033896629797623336
-0.08107587767566968
-0.051398741178950616
0.019154972735229047
-0.05330556731021274
-0.007363250382961183
0.04963126988796023
-0.06543940015981364
-0.06443169059376562
-0.0555266581857803
-0.038586524868345566
0.053765322120042924
0.04964817833336535
0.019140485744033653
0.028293101232067564
0.0670561649558744
0.011356454386242373
0.05596756060119559
-0.005444327185158523
-0.034679465569823036
0.004086337183719949
-0.043834176858097935
0.05011139132865965
0.05950603397522406
0.002779097192562557
-0.051235245594579294
0.06466365066520592
-0.03309371862202125
-0.04626007743734747
-0.03923874721871648
0.03853524785920881
-0.0587137455224275
0.018385504825004808
-0.006140826057753033
-0.04740344975889555
-0.05365448032303678
-0.016160527912596548
-0.00744687312586501
0.04732364648660173
0.005490634229643618
0.010577579224921438
0.028264153237421957
0.011493831449315909
0.03873864191013926
-0.022201920228483277
0.051967925377222494
0.03387023783403147
-0.049152093612891926
-0.05903175783122159
0.019902585467350364
0.01901608042815433
-0.022730278891329503
0.43360004600599183
1.022095409134627
0.4477881526924483
0.09174284895467366
0.07996210799334064
0.06315095373225198
-0.04258253398886546
0.0059870687528530316
0.05695264743418676
-0.01719357525576796
0.019709514507669293
-0.02410673187157694
0.04040524530507996
0.02666221812353164
0.06439903697637638
0.023850591120380252
0.027005612119920527
0.057027274857788246
0.015423462063966801
0.04373775329806192
-0.04254442249847978
0.1010388296076962
0.011720630321860203
0.07146562066101983
-0.020753019213440096
-0.0023835380467488246
-0.04342649228029911
0.047177532843810266
-0.07248025873065472
-0.06410223400222058
0.03731170718697139
-0.017768105519308772
-0.12045200319478022
-0.06799911268790293
-0.027954071578652998
-0.003596095686283771
-0.041368740857565124
-0.022883959951137324
-0.045732876453119645
-0.006536849886538127
0.025053860535428737
-0.006680441480479031
0.014639456170482318
-0.032132689431168864
-0.08615178773385622
0.0978309114007479
-0.014174093047336765
-0.00048822683457526943
0.0025072651116740093
0.02012054026006005
-0.02156489652235062
-0.05908014950208769
-0.0236208801343699
-0.008081119105173165
-0.0075093902155834065
-0.019973491249138345
-0.04379858413987278
0.042928016334124575
-0.019707480046151457
0.09089617999402105
-0.0037116922895252752
0.02015329972376366
0.026743175111281214
-0.07010709677156578
-0.020040067744014064
-0.007307067147036092
0.07576103709913642
-0.004826471467404741
0.08363056960706929
-0.005327028186548187
-0.07105855247425277
0.03056564497614537
-0.0164846779078243
0.04577920755382735
-0.03325741231647918
0.0905949455299595
-0.017410072804666995
0.01226731070053511
-0.09880367069813413
0.08767300660412614
-0.07152635123123662
-0.08126009975695042
-0.09848563829073394
0.023244481586540983
-0.008353389414097445
0.03448200925423603
0.02203581307862589
0.014682240237563995
0.014178908692944872
0.01536482427263341
0.030268623032457517
-0.014473906129087092
0.023743645971273302
0.05434418906285733
-0.03436307052913159
0.04301908078217634
0.05032529498100036
0.010749509842694826
0.0793990243115069
-0.027786986136519545
0.08639743944733233
0.00880861698655394
0.015245457647575386
0.009388258007908924
0.014970739927206062
0.001425875193592786
0.04994103567467076
-0.0441252189285892
0.05293130774806864
0.001409663114380965
-0.004786711133221419
-0.009537194674129458
-0.04316468666924125
0.012027342016768793
-0.05900542411300197
-0.0777618751418196
0.008146443757490676
-0.08249823858841338
0.08192762389682963
0.02855618106615514
-0.006300766457849334
-0.0334318312228443
-0.06513950704737546
-0.026041598461236895
0.019090262872122076
-0.0036619515338006422
-0.0025407893333970043
0.05696660928067813
0.05685948648581899
-0.1218009658422728
0.03728433438552952
0.06354804129955888
0.04536826982110068
-0.08088190795447008
-0.016875117076300166
0.051632642576340364
0.06234117273107362
0.11776028758310642
0.027650980626229296
-0.05946039335785169
-0.04879226770267179
0.024271079952639604
-0.033378177506811726
-0.0352344260244355
0.01772023392535779
-0.08657008491957502
-0.02749710626641085
0.004860676912270427
-0.046106445514723454
-0.010157423470888466
-0.020037826797302444
0.0012255725877403697
0.010663359167877525
0.02146880892123094
-0.1146496334351983
-0.03994954976803738
0.004338093692315299
-0.06078884985562188
0.09603826405359982
-0.0013339364714172737
-0.0001640431091662525
0.047788749394651775
0.07860082201653505
0.024377576643319923
0.0793912835135051
0.007186093642582949
0.0061490766851898335
0.020871381413787075
-0.03937425923979307
-0.030066259695574162
-0.10211466245469838
-0.048833848456239726
-0.008150108123714401
-0.07362159968041358
0.021872217849547404
0.030042050914752046
0.02128272903883469
-0.002249988424315769
-0.007378217954158064
-0.008720467076188539
0.0943031342658389
0.028296195582322305
0.06494436334681565
-0.018623216118088187
-0.03203229150626049
0.08860417024382
-0.025507195242070582
-0.04984165271132348
-0.059940225238892766
0.010733048994820305
-0.0639812540679539
-0.11153166526202735
-0.007602596748796949
-0.08418733272890498
-0.0035542656233811727
-0.0022093940195840015
-0.054358802933979745
-0.016432658875653764
-0.11974535502169532
-0.040340657264875165
0.05921190962873815
0.05634425466496275
0.05436672358847894
-0.005574248208123913
0.0360062753291
0.013145582490093134
0.15567825479421912
0.4995857661872692
1.0792476195987404
0.5025737923611471
0.163817053817768
0.020724368359948536
0.009815706239080305
-0.0011570199655499735
0.05578370096274868
-0.060072147802337855
-0.00015201868149477963
0.020980166039401452
0.09802492929942005
0.04833893411696053
-0.02798563280908785
-0.020462151128879325
0.06499251642960682
-0.06822406608830603
0.04627217208810927
0.005383701017544963
0.04507231961494099
0.0851403254780812
-0.00461281470727938
-0.015445398620599815
-0.04293411679582121
-0.011616537688969968
-0.006069260532672479
-0.16685678263771553
-0.014371415301747077
-0.009991217749096943
-0.0305808886736659
-0.025739792250914686
-0.008471364345014025
-0.06055161607257287
0.04212528956485491
-0.08838122884196425
-0.018159927242675754
0.051260838508226436
-0.030997296405126818
0.014371206114284505
-0.0399263274353455
0.030072214219746676
0.030100886905494836
0.0025380161643432514
0.025541707039961854
0.056753837331771806
-0.012607842902291146
0.05141508744415662
-0.005201944288578581
-0.08782119210947628
0.013843591907574705
-0.025168369246770697
-0.06853099741378176
0.047399586312650246
0.003939079661272484
0.008641766683839307
0.09453390535848004
0.03554543704382877
-0.029041814710406795
1.8128733370728535e-05
0.04324081093421174
-0.07297024552572977
-0.015898317333015183
0.03715896365654447
0.0030914573922758495
0.11379685813028094
-0.013665194240281396
-0.03481758261113025
0.020303381349312807
-0.02883867182529643
-0.08972854971705323
0.023939188824065247
0.05597026300287216
-0.06855801582344904
0.017024215766336004
0.019657454084276563
-0.013059740760044292
0.0009261554975913543
0.04851442963620965
-0.07735313789273007
-0.05084306168924399
-0.0022210649745437578
0.0031020915517831972
0.01656521487447501
0.013796102267641575
-0.02339197355899242
-0.0007954327156012744
0.019059015120480007
-0.0033670563036508755
0.050029891260550276
0.0008547595744770667
-0.0025897640313217937
0.05114296319530727
0.04672129123432597
0.07811371664463812
-0.010820974536391479
-0.11089537226383617
0.08368760938350106
0.026658772519779578
0.018156061118207122
0.08264432509585885
0.002099670934762219
-0.0417748954054132
0.008157013555802367
-0.017071244935459008
-0.019690209348770242
-0.008490986829519319
0.012514336523793813
-0.1201747965398906
-0.07086153253063558
-0.07443096667484189
0.16813422278292223
0.02271987874637956
0.017938647445901162
0.03196635048355444
-0.020875247755382853
-0.05382085871161799
0.037311150455634365
-0.06052774739080559
-0.02044489801173695
-0.03706994939338725
0.04177749630430349
0.006421673663005273
0.020395176393453396
0.13427102233960345
-0.05480416421181855
0.024855297501495593
0.06709956023231693
-0.06963025901816038
-0.1010907625513407
0.009189614935826184
-0.0865929225578882
-0.07464381865770231
-0.07317136675070805
0.024807972828444907
-0.018952348784356966
-0.06838443086625506
0.017665335442325774
0.02345921579764494
-0.06436980580484397
-0.0556779144799408
0.03992236659987032
0.05182549838458916
-0.04184382929762519
-0.12801569018919454
0.0652469405175396
0.00978116933905646
0.03671866689767841
0.04384415611590066
-0.06679660971789761
0.009766761326910666
0.02281132055905545
-0.029946043918115152
0.11411522969070974
-0.0025079324092653022
-0.02887918800049588
-0.0015359396817441247
-0.001529359730644381
0.08542005357473825
0.04193967419212823
0.015436803418674242
0.009098157758837403
-0.11505962294931504
0.02827765488152549
0.027707977257780427
0.007905872979609992
-0.02506536731019491
0.0008053221617521199
0.08026368330772984
-0.04227566858655854
-0.007896411812503865
-0.04748578293073522
0.006161725887456687
0.022834730464512953
-0.0415703991429914
0.04220991758242107
0.02910570163407026
-0.03393906191172493
-0.01343412275230398
0.04446554488461691
0.057879155734488756
0.10174418359940984
0.02544646162318604
-0.03173069152525853
-0.07810120615850849
-0.028148568720318203
-0.030223132318322472
0.0343615636085066
0.009734630087535688
0.04668122448974069
0.038149590572596835
0.0018340223702113458
-0.05804357940599008
-0.056160048346582905
-0.072289261122726
-0.026522987570865204
0.10290052880504535
0.05051451157963688
-0.008198391040933116
-0.033901510402172395
-0.0621376954075077
-0.0155624409428681
0.02666552961425568
0.0778561226587287
-0.014705341806180517
-0.07221887366491418
0.0012753715098429935
-0.021363649955944437
-0.11041041555285086
0.03851656750128265
0.04534970650714912
0.017231956349549615
-0.04199270573837236
0.04008449759537591
-0.05899822615584541
-0.014308106328685899
0.030123096654609605
0.5773897033096731
1.042305692452343
0.50900616012127
0.1367810070444096
-0.0010006929200783788
-0.06384069822683401
-0.07764521487342087
-0.01692995957664572
0.031976312919696916
0.12400515371198757
0.05619406766639658
-0.07288439929599805
-0.03316010232169409
-0.049615301626181996
-0.04419380756151908
0.03167635452898482
0.04971038919228257
0.03575706643607535
0.021257281329272463
0.009071506262468542
0.007782396933181854
-0.019719067813084613
0.053900645768762113
0.10444395710732285
0.01299150727161415
-0.010426859935320602
0.02511352807300435
-0.03812725118627311
0.08152001282592963
-0.008419452578510997
-0.032147410957184056
-0.030748213253664298
-0.00025490004409026986
-0.0805262956569114
0.050304457697092464
0.01518950959660681
-0.020774156746452048
0.026478791492363138
0.025669028720209815
0.036487973254571905
0.07438209561273443
0.006270413842951768
-0.010039877573959438
-0.057831560031824214
-0.04604411986533272
-0.034241710302239485
-0.024235780933980565
0.06638494445808042
-0.03485549211361977
0.07190022545995595
0.008707407266179364
0.10193689195310943
-0.03467596655046131
0.02249382875429593
-0.001049496964795175
0.0889773562002143
0.02881955711042567
0.025469050009407235
0.07131251444255136
-0.0353603337432126
-0.004144075745507322
-0.036304021508723874
0.006116996914776492
-0.05546498455340326
0.022054285766464513
-0.02828783072033548
-0.11860283388476794
0.11516743629549127
0.03468754965879324
-0.039802726103357874
0.07640820201446981
0.08048218420889908
0.002175371823234551
0.013340385581817594
0.0007750832804791184
-0.08909380612244432
0.03313394863137019
0.04157508951548508
0.022519959251186477
-0.04317725994949119
-0.016639927778822908
-0.08979138770565494
0.035727437437348054
0.11037370434175997
-0.06491122008764369
-0.04914630815715885
-0.11019900010599291
-0.023889451094233172
-0.04062252549627456
-0.1375718877168685
-0.104382318709324
-0.05119402770494727
-0.041348999544244064
0.019700786374308984
0.0034566188345811913
0.030365361897120875
-0.03177546472691533
0.010874583473488103
0.0213968340966618
-0.048916160950837805
0.07500102367661193
0.04003212000690637
0.031316348655831404
0.017948342890980778
0.09427355708056163
-0.08328484082739807
0.044524607999060745
0.006695119839267872
0.03308821866094099
0.030111532136844105
-0.00987245257195769
-0.014164822183832693
-0.00895179455483579
0.08872232754688368
0.01580667692149022
0.15240142023254669
-0.029380691272591325
0.004277510135256671
0.016463708314643208
0.04970696722822948
-0.06518748578809479
-0.05011021663110358
0.03200822049843169
-0.027776662174273083
-0.02366508795356806
-0.06238065752387581
-0.03744013042087726
-0.047551444680673426
0.02617877193435692
-0.020401549308603467
0.02091461715038068
-0.019286717903065673
0.11246908415125095
0.040204483326620105
-0.02531759401191242
0.09509057285208669
-0.061795904903313714
0.0020819841554537244
-0.08580469202274976
0.002079622268817126
0.0354887681593464
-0.013482172622078976
-0.04663205090448843
0.032164651960967364
-0.11478499684678656
0.013286778455143054
-0.03361571486050492
0.013951461882839737
0.029783157308131244
0.05898312167675195
0.04720776123786677
0.05604240924195153
-0.02272505905892286
0.07866299710396665
0.01598582939839765
0.0594190737849478
0.11678847136544201
0.02142174088184074
-0.0112234691704306
0.07045331433839742
-0.0332952659213013
0.0016733268027263417
0.031108113548705785
0.0783800718960392
-0.08614375458087282
-0.05376460988985548
-0.008287817410583431
-0.008474584953449807
-0.06176432621375182
-0.0633915293365687
-0.0799612237970664
-0.09095052916930918
-0.02413792816485547
0.005894936323939296
-0.02111418472161747
-0.016198663939298655
-0.021471759785177964
0.012368929220844855
0.03949066417117878
0.052862824053171824
-0.03614830252718641
0.03016372121376004
0.055777404024120396
0.04631841310242902
-0.006174865878110987
0.06792351575984804
0.014515321225199457
-0.06397007387258496
0.014146765997799182
0.008552158215763668
-0.0679279311761943
-0.02252691399863829
0.028346630588813287
0.01656324525095888
-0.008252307822451316
-0.04246590910184187
-0.08243053376205023
-0.009206767128348274
0.05641911285801457
-0.05154380591579131
-0.0058057237846353
0.018802142420041745
-0.08637812015424956
0.11886476723629626
0.47478874461047693
1.0380821968614633
0.4703734974859577
0.1574943674519175
0.009231950391180712
-0.01918553910671658
0.01952386894301172
-0.027585448529625745
0.06070431946544541
0.07319133057539007
-0.0451607762537076
-0.08378954145520451
-0.03955623471132529
-0.04621441209541011
0.0023656429267721202
-0.09089090718541827
0.016373795964473237
-0.10332541968866982
-0.00469635741937437
-0.01764853435167325
0.028141344377401897
-0.0010943466457896723
0.072880625101408
-0.0012843175626688073
-0.040054276143050266
-0.06854602084791983
0.03969185803843034
-0.10215979340696167
-0.0059813853366875985
-0.07906194830950486
0.07364172969597514
0.01721893899679448
0.051425139668589526
0.0535406832433903
0.007972550797970315
-0.026450426820100428
0.07653984672181208
-0.04690078849075167
-0.009380670450647926
0.027722400733095745
-0.09305718521491507
-0.06543973336677482
-0.095844993497116
0.01579991983081814
0.012012232553460076
-0.08232814970810742
0.009284881100295786
0.007754769594635784
0.05524781851563976
-0.03292945204207492
0.00709599261443603
0.03457417268661979
0.006098743951242158
-0.03993817299858345
-0.019947141599771574
-0.0403330408192622
0.0449348540234971
0.04738026552081362
-0.053424869198081065
0.02349207493291856
-0.012538624141609021
-0.09352202118012459
0.08352831184825366
0.022897067540013787
0.0027467973312869497
-0.03585670722203761
0.03340326711141788
-0.07364907695467231
0.019543612698717214
-0.07603301581559023
0.006900251421650776
-0.05577037533823982
0.011147311165099809
0.0008484997671163578
0.03769811087785478
0.03331330839247376
-0.12216526142703515
-0.06869223478539666
0.0016774509598416858
-0.04738903935316127
-0.0062976389051413026
-0.026907002648222624
0.03163383177711666
0.010932892483282752
0.08612093589319597
-0.05249718653563578
0.03299298404342734
-0.0030125873442363757
-0.00028748388434152595
-0.06317262094709727
-0.0699933216279806
0.06488790494401801
-0.0215410118772138
0.04822159343749318
0.06766488878517239
-0.009775612210612175
-0.06927670704344828
0.0353054986819133
-0.03140544229951587
-0.030974998201416987
-0.002807885646046935
0.027538935705683405
0.06665054871237114
-0.03590615161907229
0.031617158941060076
0.009950185977843046
0.006058230303917139
0.013322232968688863
-0.05786661462820404
-0.005608295694690402
0.03595215340221217
-0.04841340848998721
0.04602544828887095
-0.08586139027026882
0.11928423111235394
-0.01514627663010808
-0.06405360207019116
-0.013591003492448534
-0.11717562934221366
0.03930194035202201
0.015644393579104268
0.07033132498770493
-0.017955048321132355
-0.05183198924357904
-0.004494311641944768
0.08325278302341518
-0.09405068398528839
-0.04332298851567198
0.04783321644129593
-0.038102089006570826
0.024470607420567628
0.06320213235384003
-0.03117202084042399
0.14417614861489333
0.03725509663015095
0.05869279714872147
0.0024103604125536725
0.025690813037022288
0.008137390353379566
-0.016368146854407486
-0.06613089275131948
0.04976008693748977
-0.0445357891823513
-0.01167787788164738
0.007554940712942707
0.03834175456279162
-0.029302246855289357
-0.03895397386720726
-0.003783248087230405
0.012185745392104475
-0.00038432079165011835
0.1100826378324789
-0.05113881253119065
0.030367145013078568
0.015546503225065676
-0.05988291660623244
0.0142419528810112
0.01609203834164634
0.011102749129088433
0.012092031614565785
-0.014418924545325028
-0.04172216139542274
-0.09796804559707173
0.036339073828896395
0.011060219077299637
0.09980884865760299
-0.05418989317135843
0.0821155473038751
-0.013099386678614988
0.03635218086750804
0.0746125243423154
-0.012648226417127324
0.0033079555973005398
0.045863915644680474
0.04969616736836014
-0.08900155011629823
-0.09135967270426107
-0.03923990483156626
-0.032704044497650846
-0.03226796801223597
0.036798354855029636
0.019155501966368185
0.04006143065476928
0.029746840973849928
0.03688678379666751
-0.03196118742719478
-0.03349757725249664
-0.0542451550220073
0.027765112285961804
0.03098351973152576
0.03533881230480636
0.002205112242008289
-0.033388889164767566
-0.03919345533677965
-0.03014425553523304
-0.09194149511985594
-0.11925567366360673
0.030116717934751448
0.010315415178787557
0.07407709501069776
0.010716710456022488
0.15528090958960852
0.46832772281759183
0.9654328060509144
0.4853471156429634
0.09856005595490304
0.06966854609451874
-0.055657590135209156
-0.027058993311925645
0.037883509346180524
0.04288481277678341
0.06762239215409904
-0.12738763662269245
-0.0250805464702739
0.06648914194831111
-0.030193992475616535
0.027991454910309334
0.017047853465606534
-0.01600560434421995
0.06669216310538213
0.138261040384214
0.03715263154095493
-0.025004363985211293
-0.02578767688217572
-0.003507179844999598
0.0012577019685360942
0.1077316135214266
-0.014535302670188209
-0.037271103193663425
-0.014783255063606289
0.027808763223373417
0.0032581324286330574
0.06528099458878481
0.03062999361025648
0.04863166767500243
-0.05075731949572959
0.04241717973867648
-0.027155013412896858
0.03877553701548403
-0.0038349710285732887
0.008017861583447305
-0.05218731051343294
-0.02111146965667495
-0.005875657613993679
-0.01190951452005699
0.006926028460142128
0.047450353240273246
-0.012214464943910182
0.04753650953464318
-0.05856620405176264
0.01741531089609131
-0.022872716830452503
-0.04811700912649397
-0.0717633798592536
0.0574811263262143
0.048434240108678014
-0.0022612392560501103
0.056670978337965264
-0.022307276128253742
-0.07893230638407778
-0.07703564493149803
0.08515412809854295
-0.02259197496603084
0.052715296970368836
0.029224837254271142
-0.056684341312834834
-0.05365932608886209
-0.038922001335774836
-0.031556882417501445
-0.06306221735481252
-0.015277012622241924
-0.025361865899661946
0.06545072639061507
-0.03634588701118898
0.0002637986038317855
0.009551497240265695
0.04572746799011584
0.04881023534389766
-0.024507303753685823
-0.0084625179033624
0.004290061691224946
-0.06435771726817122
-0.007839265533413659
-0.04628871779035113
-0.07122552132986859
-0.06026960800386545
-0.030844100950175746
-0.06353053623234856
-0.053981681006186
0.010804720297225831
0.00449218969242123
-0.00316755569612378
-0.06315516750110783
-0.08416172376490638
-0.019139114302357933
0.04382617761655158
-0.02328560607295235
-0.0031978996385400786
-0.06701719434616253
0.04246385268579414
-0.0025186342847270367
-0.03157983845009787
0.01307125509083735
0.051146869056790306
0.05892183011546146
0.031383499853930415
0.008237416756081726
-0.09392382067194709
-0.0060470202131591684
-0.03278214466934161
0.0024692838638719354
0.019694181990667
0.04130190128803453
-0.0637844570549875
-0.020022381495986466
-0.06830982479491823
0.002187823786440149
0.009083782281236165
0.08778989456106231
-0.04184163025536188
-0.08928527152548049
-0.0032100131469994238
-0.006433732519632311
0.04224197577529185
-0.01912054618087633
-0.04359418054650214
0.011434978811713433
-0.06482092417502756
0.0042217897897265655
0.02312628032637691
-0.04022160616458294
-0.019626598309801613
0.038866887279522144
-0.01975224508271197
0.015580363564385389
0.03369568158556193
-0.011442238968207528
-0.004051651899004163
0.04931324733338065
0.07362355883841241
-0.08690057298347889
0.05807641243540317
-0.04180176987799236
-0.09420915117217586
-0.013202561972585462
0.006312830868042657
-0.06143677296458307
0.034676314676325835
0.005122184308854546
0.06155966424721035
-0.012221759786472953
0.1010790490186751
0.05792188076235952
0.030517624430934472
0.024501957866773096
-0.013772850558901829
-0.05360485485289712
0.026218728197701824
-0.0189501311007004
-0.11674988478626672
-0.023798140751194814
0.08420264451004428
-0.053348314815382984
-0.03112724937922818
0.0633455587790141
-0.0412696443716087
-0.03430393112493683
-0.02148645167400142
0.019173496440897886
-0.0868581409706148
0.05369002898997404
0.0700617051698023
0.041439047477413574
-0.017791553883261268
0.040010546901902144
-0.02370340456660496
0.013946093913458394
-0.03019526047121935
0.07783926647933019
-0.12429693877366838
0.06634443435131712
0.04011004954506546
-0.001607112331782967
-0.07685169001598773
-0.037748276075588644
0.06114636168349652
0.0077179638897382375
0.009311067209331936
0.00015241979719790393
-0.0519441688863451
0.07085602333459182
-0.0409084177558931
0.05394295537920416
-0.056602100451902164
0.05132450347737016
-0.015920314072898102
-0.06483487976752784
0.006702198220049863
-0.0360839866812833
0.04889073258432551
-0.05975572986691155
0.015277366584268185
-0.009692590131476289
0.03849465459700002
0.014478297549129663
0.030216061584510564
0.028940422357741198
0.06464619112816099
0.036686827522252614
0.07642538701581988
0.0679064232288577
0.017006135251360542
-0.006164053389021289
-0.07322514165105609
0.05997723134755424
-0.058341327123069144
-0.011207698852691714
0.01514499042989721
0.14444539177762455
0.44515402855772646
1.042342783661969
0.5515261372105162
0.04811754831656245
-0.03973584278604026
-0.10018881418020974
0.06676216284057562
0.04952234252383397
0.08868078468146018
0.09105143834160884
0.0626769405644873
-0.020160324505625188
-0.06725346553160794
0.04212250390928712
0.05072302024268316
-0.1483170351797241
-0.023567834421845322
0.02402657891426386
0.08020750500649192
0.04623401156140933
0.002312012463066811
-0.07282574596907225
0.023261741371575335
0.05841229873936679
-0.02423340669500692
0.016775555803978433
0.0662802635013371
-0.09078350148125264
-0.010757588629725062
0.034178872314347936
0.017329234862875336
-0.011197689330448908
0.0275018662432068
0.045132253120373396
0.08091757382506133
0.03617587886363741
-0.023899624305515205
0.05690945738649274
-0.006905907634174296
-0.044610773906191926
0.03909412216167185
0.01002462270776824
0.052161291222163834
0.046534366479594386
-0.15219691127205448
0.04230171118243485
-0.030289235605718296
-0.0612218528933752
0.11622027283516433
0.0003984712894821316
-0.053181208704873945
-0.05788571816605938
0.03264877750708238
-0.019077687244721846
0.0007793921155181942
0.05156389605517166
-0.029640458658188658
0.017934005370698836
-0.016244574222572337
-0.027182519542646902
-0.025958583174035894
0.007250979474382345
0.003255259682360233
-0.014094098272579911
0.06359449639091667
-0.06029129104745712
-0.021433085814225913
-0.02640363121078589
-0.028023744522228153
-0.027521163624602225
0.062402283096992896
-0.0371112803710932
-0.0280723085067181
-0.003187105055816858
0.00787681571962408
0.014672647609761579
-0.03219455966943371
0.007909982371230691
-0.018088781184184995
-0.006220451875117023
0.023672831708415616
-0.01403689794537112
0.03701300852284848
-0.06421278090424658
-0.08600350231645748
0.004539072984633851
0.016330356460620754
0.004444041363240011
0.0478631201855655
0.07603309174504666
-0.02675625827246719
0.014097974529666456
0.0760058057590654
-0.017037078513634195
0.02635798289519717
-0.022150774668809773
-0.0020171662521406694
-0.04496265750861769
-0.008482040061887547
0.005915450987687388
0.01633550713879165
0.023372742312743226
0.05796780567412291
0.09219632589221084
-0.031019166275652196
-0.018426799611030144
-0.07388961954441063
-0.03654522842343955
0.03489235342600679
-0.0060534566146808015
-0.015172251361152411
0.009010691369418516
0.01019261507237957
0.04568389252409896
-0.03884075302905363
0.06936643307026666
-0.002532829558513369
-0.12148401822754201
-0.0715699694243169
0.0529434941071073
-0.03620473797626888
0.014524598989925945
-0.012256147098173228
0.017603111245835953
-0.003301178086527207
0.04621212364396968
-0.09727629794252318
-0.015801845677359767
-0.0084549730357671
0.011028264335284484
-0.025316302880331393
-0.05939411971249423
-0.05171201356765133
0.019126937550722273
0.07666278512600375
-0.037140182029090724
-0.014448097397724706
0.060971675855364
0.06402622391753508
0.0397698753713342
0.05043549484638701
-0.06288521029735082
-0.09193073774511518
0.01551669938412714
0.007460503971586251
-0.0010781786130586966
-0.012805778371598991
-0.0011622566700243914
0.03172273655243508
-0.06026562511022935
0.030418598943156502
0.0007370747372851308
-0.029087752614478025
0.05054434178903377
0.022428888856956018
0.006507887275146425
-0.0065304424522121905
-0.009447698430161185
0.02251505803895454
-0.15474243530379922
0.022356935694737054
-0.013950198767166456
-0.0513049725469935
0.02648412507577674
-0.002884436740932233
0.04723873943385809
-0.011396982829934194
-0.03718356804427393
-0.019809886860790063
-0.02507114047362634
0.0940625844959292
0.01641875380083222
0.10532941507321136
-0.03197109754492147
-0.008068429944125897
0.03986261224008204
-0.06932993384235463
-0.1078994908796252
-0.05575182371785939
0.0016844819115712697
-0.05704771942846668
0.03671731374848215
-0.007494368749941804
0.0036406658867158374
-0.023615872384687077
0.01800809215920655
0.06386455211902163
0.016256373330088468
-0.016751508619616676
0.018581605264034986
0.025134430980554408
0.09910010546540506
0.06044332075643152
0.051701809912413736
-0.03383669557547882
0.05684691636224262
0.03032991327399062
-0.005413366230459939
0.11511421631219923
0.012656359610943272
0.009086387792072631
0.014537224758073605
0.041153989349891555
-0.0542672826337725
0.00916355043425953
-0.07238801464690044
0.014348400068786666
-0.010578499910647812
-0.006082556762814942
-0.08552438720028946
0.01885711966902494
0.15771223891446862
0.4829996066599501
1.0678811173768998
0.5576634812624279
0.10188554869150443
-0.0289582933499152
0.00456075016509059
-0.12009525662719972
-0.009480549603538618
-0.15080302800058754
-0.03993940811648458
-0.018331945322250017
0.015516444848523984
0.04466247627939469
0.025339091016207512
0.032174886155649195
-0.05312346526846493
0.02613360980598023
0.042973539502695
0.11245845192916558
-0.03758594575276011
0.003916589927648151
0.0011703691623922677
-0.051226513774013376
-0.005407646290355697
0.0009614329497580782
-0.012805272838695137
-0.04024489932573178
-0.009085390460387891
0.05809228357852177
-0.07824848287370373
0.014650087026539946
-0.0068726095158398864
0.0013807626363749994
-0.011635053171998443
0.020214496894433904
0.012441034533389498
0.03218927001857441
-0.0034952226695991366
0.08871690272350893
0.04069961300595485
0.03926823629945996
0.08162062611663694
0.08443399476839372
0.022352238693903615
0.030570869862670408
-0.05253893127417808
-0.010264346179934302
-0.08752670421456213
0.014154411262004174
0.05589572288650754
0.018470438123884984
0.026758105135937828
0.0003896742781123602
-0.05726845275213051
0.018303197592541433
-0.05334187242782441
0.07335060441426891
-0.012341800978035678
-0.07353767434989987
-0.05497870155891506
0.03318083936067349
0.00708921948638295
0.03417041746086243
-0.07121078507998324
-0.0888332216243098
-0.0014584314737004925
-0.13231813299824913
-0.024455067311427034
0.006131552881359379
-0.01928282216312877
-0.07330810626341894
0.04702690851081458
-0.022601976781256153
-0.028150802480168588
0.0076310953384370606
0.06980738433022993
-0.07314261338686497
-0.019148221981444342
-0.06493529737529012
-0.021768283633084477
0.011573232743441748
-0.04226680182986192
-0.10859833826562414
0.003515843757499304
-0.017855653935271207
-0.07418515591171125
-0.02488915750233577
0.05862568524129367
0.03936415854524345
0.061023286885815334
-0.037455943393087526
-0.10031416734541235
0.009154890674429001
-0.04233058085553282
0.06761339739447993
-0.000212667874552124
-0.09180204019722804
0.09430882422557926
0.0024512550379291436
-0.032496389631990676
0.012587354051149587
0.04100099000605037
-6.116841286151136e-05
-0.007994672950494079
0.05749548229208003
0.024812862100423286
0.020053462608349844
0.021006810732513342
-0.00804983016205932
-0.042684982309056894
0.002176275895375612
0.04540394895108647
-0.005613097402767296
0.024105165255013297
-0.04134264538747697
-0.053861577760010375
0.019975317954688248
0.033841526113898436
0.03300262575315193
0.007811490742111481
-0.10563457579285483
0.0052693459381225535
-0.05817879546319407
-0.09689717562749285
-0.04950060587264604
0.03546606210934324
-0.0045264823767745335
-0.00868922984314652
-0.01540974592447178
-0.02342664279889318
-0.07480607323945072
0.04968478096707696
0.04685117352762956
-0.010238107220764726
0.0054749870642840474
-0.007786443764331515
0.004182200266775171
-0.057803955959334165
-0.014293605221533135
-0.020666524244752325
0.04177857986811301
0.03921003332253216
-0.02947237570678248
0.014739142844554904
-0.04931638187495224
0.030833097851202303
-6.953908127738246e-05
0.016652356204140628
0.012446384821937566
0.06172086906934441
-0.0033438820266832184
0.013333154404682105
-0.022907721750387494
-0.024251356807508423
0.0210055461655336
0.027816787927713624
-0.08440099297807781
-0.05224144619127438
-0.09809078975710629
-0.012424163085626808
0.01825642777325252
0.10158971581342863
-0.015796834079676775
-0.07536679369544863
-0.06149938594680439
-0.03831877756649928
0.15521053931947268
-0.07098160703836606
0.0637617882883777
0.054218744632764354
0.12617799249014877
-0.002831336088177306
0.08252423080876392
0.009465678867304421
-0.019164451146680896
-0.02410347426277194
0.025884620227841788
0.03269892649975015
-0.003014586613967459
0.07114168958541106
0.0008772985299692825
0.04014120370849092
-0.15047197426653972
-0.032300575749270644
-0.04513010600492423
0.05449619389525643
0.003003888980388103
0.018398281818599146
0.007695904584166348
0.044411429156399236
0.05330156703008076
0.27247517981694
0.46579856413280835
1.0740902695230141
0.45985479592784806
0.0904492488838015
-0.02284178056543092
-0.04595858228953699
-0.026224566106166042
-0.011121433122196635
-0.027875643974692044
0.029480826373165903
0.020615754032118024
-0.04040348302432887
0.0515049486189402
0.09941051138565299
-0.059424502483900146
-0.06301931724987052
0.003172748629165778
-0.019661546033054547
0.021252706227268853
0.0012176521245589
-0.035654428897709
0.02029263471153639
-0.006633311654010106
0.029572648854301005
0.010752301011882308
0.01566733709354882
0.09725296452199944
0.0031047124770606795
0.04016157747760679
-0.07610880250308374
-0.09893501599872213
-0.0597196089688584
-0.05006496774804994
0.019899194548979857
-0.0006070242396835189
0.047057174760259855
-0.02101346279705318
0.08127215945279449
-0.0060269112322616815
0.11425082698401855
-0.0011578037110698952
0.015024349069725891
0.02552486099906115
-0.06498883032281623
-0.026609018770584532
0.004474959654477582
-0.0020925245300292615
-0.07638718696705848
-0.009672390038072355
-0.05868672894076535
-0.003178374469858237
0.0010305439312520508
-0.012691967231182516
-0.047836507814937805
0.0005697693383791236
-0.028958243960065733
0.027379085196648303
-0.04953386563749719
0.0746612475036249
-0.030734009719287747
-0.027096568161475355
-0.027010339461798913
0.034368470523648574
0.008552404278527687
0.015041423236150925
-0.04534902933855775
-0.005579587058781945
-0.049068533946842956
0.039532198864804156
-0.039327206561011935
0.03134351258131126
0.041382674704894
0.004894938824595344
0.011948187655317546
0.04307334699580835
0.011236208202048355
-0.011921408077531306
0.04952524583341846
0.042548981083999536
-0.05817607375591154
0.040356953950351354
-0.056279029789120465
0.0169514678704357
-0.03540361499964111
-0.06045267033478907
0.0296459513770363
0.030709074212960843
0.03607684645339285
0.022280582973705443
-0.0040823240268753475
0.023053813282180553
-0.094584698641615
0.0026128145519159034
0.06074967194333811
0.04035087835356026
-0.07802596949792637
-0.005561199458825922
-0.01346963442337551
-0.00689672629094748
0.07862118681512857
0.016422507028739455
0.07494900365700934
-0.006888969979734623
0.13239607873347636
0.0012007530015224841
0.01638553187785349
0.029357405106793147
-0.023598057797502264
-0.0006223087397238748
-0.01003535297378575
0.017381639076205335
0.010446041623409178
0.029925910367152947
0.016270719253329635
-0.0484449381195172
-0.020500887655081092
0.03906003173507199
-0.004097024781470897
-0.035713436562436675
-0.020724970122238454
0.02664926497458714
-0.04750490596955866
0.12367732337048201
-0.04984656127100351
-0.08836037921184432
0.01494067191568471
-0.04988510134007165
-0.0795530518507835
0.06727371480723048
0.0011432317258619922
0.057840975903141224
-0.0473389754499023
0.009951478725089372
0.04894718080162274
0.0627187962852153
0.02652089352396276
0.0895535869046421
-0.020446889101937156
0.012168164900385517
0.008591519562771162
-0.01583662985327426
0.003370191541501812
-0.028915907554542538
-0.03972136584732777
-0.020206375168123396
-0.0776708770263624
0.07230199414059524
-0.046990806679713004
0.04429859240465915
-0.08148074451426437
0.007801129707211011
0.0007819355447969653
-0.06798504273848727
-0.03404194655868301
-0.006531503459182884
0.02779361828853575
-0.004809598813235559
0.019432791159936298
-0.08052149250189411
-0.02320224518407023
-0.10747881503145243
0.050597827018578095
-0.08112393565028647
-0.10277662798513512
0.08767695011329169
-0.09158845137075519
0.020239006574541262
0.10474056548263606
0.058237862484226105
-0.06593490545118087
0.048314421984436695
-0.016096271797089997
0.017665943730235847
0.045499823718963245
-0.01342655519734039
-0.002315314529432534
0.008362167315456992
0.020913478408361774
0.03197559197752069
-0.010784750493264711
0.038679475598886785
0.05492945043150193
-0.021544057003225064
-0.0056497549182037265
0.024098556318771964
-0.040531382719848665
-0.02696983693742097
0.053042670067459635
0.04400109551719389
-0.01980979005601267
-0.04455798602688008
-0.013646914336472757
-0.030722219848613466
-0.04446858212072837
9.356681359071325e-05
0.11714407572041906
0.007282698716514978
0.07368863201590936
0.06348456652871985
-0.041613451542393785
0.03768163631593067
-0.06710967527167311
-0.007155258823319616
0.045258793841092326
0.09278602513404906
-0.0619700699098889
-0.020420550839351403
0.06455169470190555
0.11712445028742566
0.48047579571124116
0.9359950673446
0.5126249185509901
0.09156908634014055
0.03696762306611282
0.048089115106531834
0.044960470445895497
-0.03762211945574262
-0.03763365547137682
0.03223587200351586
-0.04950093318433664
-0.00011137124904317961
0.042230635278747757
0.02462235538583212
-0.06068545200443925
0.04315137239681077
0.0045645560233960065
-0.04725278588431952
0.07257911695060293
0.03123195458431301
0.0034681146663208826
0.1145439152802109
-0.029511193824820897
-0.06352971125625305
0.008470427627156874
-0.04453950557082103
-0.06683429980705251
0.004034633597074724
0.012235091552632736
-0.014239750356694234
0.001053930656403867
0.06227462525646008
0.058254765979096707
-0.016482504783913225
0.027331528913162508
-0.009001577694976759
-0.09302352374592282
0.01392158779166202
0.14499149993045238
0.0791185546128851
0.16574534328966495
-0.026658511987531466
-0.02110684548822246
0.009139508256188386
0.03910813937719528
0.01714031755381328
-0.03221623596051368
-0.030377240653349232
0.08623818180886456
-0.06040867042500797
0.008851349990650062
-0.021168897650858647
-0.00023429044476318338
-0.13709794736822922
-0.04757648031980498
0.026499841997985225
0.053451495620950196
-0.043066972548604164
-0.009595478885653506
-0.013282971010134488
0.006756824144802918
-0.037648829950472334
0.011036309830723116
0.028283188662519776
0.011712489981942506
0.012124597583390925
-0.0339975277608682
0.1329594680793098
0.0024495579641323918
0.05781119560675865
-0.01558258390315951
-0.022754615084950268
0.054270041284102136
-0.04453098248431135
0.03295752359248482
0.04199847046182208
-0.06812430398986362
-0.14870506182714072
-0.12015717098046885
-0.04542394181478518
-0.012702454405971515
0.037382349247091766
0.02110326068639225
0.052077105316051656
-0.03724795820781831
-0.003945973293058691
0.005183269685246891
-0.05635587491711161
0.0759770921943291
0.08910453409681914
-0.06894269334085
-0.05275346090648303
-0.009113258658747465
0.04355251444696528
-0.0542323362334323
-0.15377061722042595
0.013217311986393239
0.07043351852316125
0.08052475094657241
-0.08197063074722977
0.1596272607606416
-0.020649368292976436
0.022688390187547314
-0.009143379618134889
-0.005252652731853853
0.027781349286644465
-0.05861128832572712
-0.09264466332525578
-0.03677051753200432
0.0008901304603517612
0.03427561315207508
0.05157938296732602
0.007759735091853054
-0.09084477616884852
0.06620329562957597
0.03267880972457752
0.02169678543419999
0.00389631758713512
0.031748487940435346
-0.08313777996586223
0.0789689796946272
0.01549087382954793
0.013338359630104239
0.04723446177546836
0.03342864162499057
0.11870627579289
-0.055895904622979234
-0.02827072902181993
-0.10045574041069734
0.0542955052892979
0.008000699037155527
0.0016315034270471746
-0.01238344596200184
-0.02436883056829195
-0.06559133050523942
0.07262008342168294
-0.09089377637705912
0.06910876907799383
-0.03809899377925757
-0.00874291837076256
-0.06627741055285961
-0.0028462259590049804
-0.08629451975227982
-0.05704325852768796
-0.015852225539109626
-0.004158146221390607
0.015998404163392595
-0.10174595962652562
-0.005344859171905086
-0.08810621643072453
-0.06157609724805638
0.06647687501441064
0.018804640138577182
0.0006440175896687272
0.027891814589187016
-0.00018870663265645253
-0.03282877875396867
-0.029405585334968617
0.02070058498522815
-0.02815321912196017
-0.033992492006150586
0.050523920168929905
-0.061807945298213235
-0.06192669210484392
-0.05709592939156238
-0.07899662977292919
0.11312705850275091
0.024584754790126565
-0.006110206854033643
0.10259256639432733
-0.022770352885366843
-0.018258625055993294
0.07459689749462217
0.01362195603570379
0.02290509440371462
0.04760990033667112
-0.0503313660844025
-0.02868385546195408
-0.04437345669353657
0.049709661073182615
0.00019872289775852036
0.06682165855123148
-0.03972130992630349
0.001189913392267707
0.007182802206349283
-0.0930085451279889
0.016817734758030622
-0.04537433978302241
0.051995011199895615
-0.0124670666266762
-0.0754299956947748
-0.012075818853786023
0.0825691712529544
0.000579157542948031
-0.04114455515858652
0.032537605893892686
0.04506306966463708
0.051006693258483726
0.03399973662224911
-0.03451302406857427
-0.07146686097472392
-0.06282425917864995
-0.014805232746817219
-0.12203553184446321
0.03935362342492146
0.019433417678996825
-0.04924228526365493
-0.024523864245765317
0.057533318051385965
0.022763300416567798
-0.08167599325762195
0.058877019143939814
-0.10294129644105468
-0.019871142887530648
0.01731690951020946
-0.01719843551661693
0.01800077912564618
-0.075072234602354
0.0009645357678821102
0.05645865255157121
0.5335351377314838
1.0496959420511756
0.43976324819828594
0.061194269872830664
-0.018107070815335004
0.08197580624398593
-0.029096743788698733
0.07512049305213275
0.06475573931814159
0.016369712170810652
-0.0022917671123426123
-0.023581005811312315
-0.0731089780127416
0.01397733780544065
0.07242633421048071
-0.04363275703645531
0.05496953456904341
-0.007151069987463785
-0.034208230711628054
-0.011391649931690223
-0.04462374177657158
0.0033801044828422003
0.015805835199862294
0.0264023025871927
0.035538725118990304
-0.016139863081725766
-0.05997753627167113
-0.10337377527507736
-0.006989493621362437
0.028614343247887572
0.03527013976721071
-0.02845341924666003
-0.07957588350780904
0.0033652630319430453
-0.06571416785038996
0.09325175979043916
-0.046250215974998295
0.01733669539945929
0.03162659685863129
0.09434033054270481
0.0047377643435909875
-0.05349940437546426
0.023605449293540356
-0.017855772039962907
0.04704875748117325
-0.021523952323526954
0.02299818485595768
0.009238061997211089
-0.05150967607316778
-0.007100184931378136
0.007091951777665232
-0.023898636400773055
-0.01257443517381609
0.03633854476686353
0.024242751406636124
0.04456723441016888
-0.0507213255803936
0.0668362839588829
0.045795446144371255
-0.09906065784856383
-0.042035974426626155
-0.020922521901398563
-0.049659552420654424
-0.038551604003278436
-0.0697765783305567
-0.017029648422126394
0.01631248853070012
-0.03669699437921245
-0.08616612215963398
-0.09613898314770282
0.044912485020270586
-0.04258684792791695
-0.00971359910420018
-0.07555964086664987
-0.08235551175690722
0.02335752450256175
-0.03551008456442644
-0.05371241177320162
-0.01239004509942673
-0.01589765424211486
0.0012690776759429277
-0.03436727291280699
-0.030752073075266836
0.020788475481777154
0.03151380661465545
0.06444661533473284
-0.009042691406268927
-0.08208200875365565
-0.02312493847230006
0.040550095891110687
0.013948261526134237
-0.013491012993834928
0.10947207246725457
-0.0007738158032343124
0.09125172505039778
0.035302875410447875
0.04933968031670516
-0.06422606198226898
-0.012623960927361694
-0.06167644076770216
0.034682370114767165
-0.00860424015047828
-0.01575117491707771
0.04198770826841098
0.018013170433200075
-0.011545171898986399
0.08460517432572164
-0.009621645904579798
-0.024421181926023612
0.05954628922823148
0.07296576705085726
0.08020958171894171
-0.06178413854865383
-0.05979942957553053
0.06713370601410058
-0.0606088036294852
-0.07912665245444281
-0.04953988590384848
0.0323492689878714
0.03232628328710873
-0.055248473853763094
0.04242714816647872
0.011433468930457494
0.01482049406899972
-0.00011814540330577822
0.04449425045175698
0.02970932363898134
-0.06736887544837726
0.02760724869365316
0.07668762564237079
0.06609466909361364
0.03995637612945571
0.07582322246618035
0.08931165879425086
-0.027096126507522855
-0.04220432729689788
0.040016235506984334
-0.052252460182615326
-0.027408306720854154
0.07173558058136394
0.0027884320827749665
-0.04038764915894261
-0.06526392081769943
0.024653307486218662
0.11261949831309409
-0.003586102578982152
-0.0005579573387781929
-0.003391494227500515
0.005901946035238373
0.1114744912869959
0.012422179989465472
-0.002420214796520319
-0.0298606860205416
0.02518630046581352
-0.03469772580280136
0.04765406888386895
0.01214021287618809
0.005356573414993591
0.004102765885259104
0.06951451967323115
0.007515816282857829
-0.05005586484873999
-0.002175997296281937
0.019298310552526114
-0.11209276971283202
-0.00794125426419765
0.004990435718223989
0.07130221783266684
0.05436309130315095
0.007452309330543343
-0.02314295155694237
0.05496257229288895
-0.020132985716365195
0.07852356554164397
0.11897998528258003
-0.06176117759580324
-0.1360345709582592
-0.01319415898478723
-0.096916697516961
0.0020950304576183056
-0.03325156142520555
-0.020255972017957653
0.022945342423297987
0.020153577395825236
-0.017060352319030303
0.06823661966824017
0.04860469791375461
-0.0036142307553487193
0.0023451511262456105
-0.011660993417467838
-0.0506805429310364
-0.03713512398777657
0.1367726327935145
0.04353344524632929
-0.015994542365761283
-0.045665928132288085
-0.07892308106152501
0.01090940012103199
-0.04776264948947496
-0.013015329523760659
-0.011574068113123814
0.01581832270288114
0.031784940200654005
0.13834375903107063
0.5063979064946549
0.969493370920071
0.5765623232489574
0.023892143171328747
-0.0003743766937539603
-0.0013457497425122093
-0.035825084128912506
-0.04840920096486068
-0.12918984806354447
0.04615626046195623
0.05014440100605192
-0.05920595338963711
0.004800917006504291
0.0026407171030521765
-0.06347107884169838
0.14155850482887763
-0.013450465862992167
-0.013954299638036061
-0.06065322432196636
0.016797166896343498
0.043081077642759175
0.06050134365156841
0.02382014285274902
-0.009818198858295909
0.07819294144794157
-0.06773210816778477
-0.012140754433820504
-0.013231623388293957
-0.04193621234828228
0.03023478743094998
0.01901627057846996
0.011410356906490926
-0.04397232657410141
-0.05098072148835915
0.02405504395963596
-0.05296223879393728
-0.014699020292783617
0.018450460054645425
-0.0481750514554257
-0.07327130685582538
0.021284125232613735
0.00465921981355927
0.1251336525372618
-0.07252786901460942
0.08808943393957361
0.08440033018292586
0.0006877974232752459
-0.035988250589003866
0.06686156200117001
0.00889968472871089
0.0005384364819806405
0.046571687168762456
0.07636088470974757
-0.0392383225381024
0.04118083938587583
-0.059879199544955256
0.012272352479477652
-0.04538993938551103
-0.027338729090265884
0.021108598076232762
0.04828083768394583
-0.02263281372811181
0.035013704857105886
0.1855285175993298
0.01415042054408771
0.036374419107550154
-0.014465695135493242
-0.018947335943542254
0.0056659841809183036
-0.03609930469813127
0.027834127583937163
-0.05930398884775837
-0.04734628578598669
0.060883798533022705
0.015468026257724305
0.016522007010130593
-0.10750707009080816
0.07566822261764238
0.05048463982990307
-0.0831400978022816
0.10819009941101176
-0.045916486350231385
0.03922851938215093
0.04629013802576679
0.036549144012685976
-0.024634060997498153
-0.008491763947488818
0.05321034622606935
-0.044605430046687634
-0.008906105293636161
0.10925857625646561
-0.03453375468311521
0.010685340375956386
-0.03004835958318788
-0.005544226580460334
-0.032078201033185365
-0.12638993736543655
0.03244862160952342
0.02184480275405563
-0.0031635663361494213
-0.03681344391647264
0.0030431585874660955
-0.04636723380562534
0.08077513268473335
0.029689856290271696
0.06786269785072922
0.09915492667920471
-0.04531449411193354
-0.010760690250166472
-0.014730851306308097
-0.02779991245525906
0.048003083107949374
-0.006975532193915982
-0.0031359290004271652
-0.04589713883912984
-0.053818394219464195
-0.06406227651481525
0.008829252050289577
0.06633270975360446
0.00729707243102131
-0.0034826013010816797
0.01594114278526754
-0.02799387520036041
0.07530579845309666
0.020461254841689345
-0.04241797846788461
-0.01809592880417639
0.039415555977835325
-0.00040114171451942804
-0.054971661353643946
0.06034713240287566
-0.0351755410399185
0.037405782382285986
0.012063523820719247
0.06281643158488394
0.02371844701501197
-0.021625920123271546
-0.02988929741432153
-0.048728993070036204
0.026742216140261822
-0.009209587795498379
-0.027920908083220588
-0.03679720975482573
0.04266435140839587
0.12074593985267873
0.06458335188601753
0.004924969159879108
0.026297779680359873
0.007835835661714908
-0.013917675325521364
0.03855081986860119
0.015503909446683407
-0.04066135266507015
0.11787702379042198
-0.040758447154069455
0.046887459398555674
-0.021638164429544242
0.016550181173786923
0.06745749839094517
0.03813543317344979
0.0909717889282608
0.0009638311282047408
0.010293288170129552
0.024500014052525856
0.0531489084598232
-0.0067183249446860095
-0.019920539013291563
-0.03685237278714228
-0.09328202789986026
0.008496111258194473
-0.022902987351789392
-0.004905339260993564
0.043610831399476246
-0.028916459934270014
-0.05910993550423278
-0.012989734637144075
0.09049934701923144
-0.04155129694208959
0.06048214708330949
0.04272879146977607
-0.009643917932083496
0.06536750902068288
0.08473577881485829
-0.07804713728320564
-0.14075061423101984
-0.0091388744277125
-0.07299100358531306
-0.07625328288608277
0.03969958703012802
0.027753378156589827
0.011383848686639074
-0.03768431259486274
-0.012424149220077943
0.011227248304451778
-0.029572564016967385
-0.025333308499839564
-0.010569158629667365
-0.009761078018814519
0.0008635712883237923
-0.10931264027288029
-0.007355283193574156
0.03665174085117036
-0.05375078580283452
-0.04335904914682958
0.04145577144678485
-0.01887162056286132
-0.018442399859767727
0.04525316582631465
-0.018095328270277204
-0.07968715327985297
-0.05277535750782472
0.1098357327192465
0.01471773111961426
0.14654716357057973
0.5353878634468251
1.053647771418196
0.5805457302248592
0.05996889950962025
0.019710003492561044
-0.000748501833119718
-0.021611482621208475
-0.016099450401165737
-0.04469521398306764
0.04002335323359525
0.0754218660469651
-0.04845499724070596
0.02938907244223675
-0.026358478633047917
0.01696932792675309
-0.07054435357124648
0.018271664565201563
-0.03238887985414268
0.006560298797547482
-0.022180453135826513
0.029392032854153767
0.01714822062455784
-0.013045791490057274
-0.0007993142227879368
-0.09736472287989285
-0.1339627230229965
-0.04950855491908858
0.025735171577212904
-0.005808553543627497
-0.03977907498654355
-0.034873312819273444
0.07025745025639639
-0.04716629607452034
-0.061508656878919515
0.01122006032862656
-0.06270366845527724
-0.004287719498644853
0.007737138406775173
0.03986056570292542
0.013072303924754705
-0.04979143206522296
-0.028632757852355296
0.001694874884489935
-0.026382116920989615
0.04150539110939153
0.11059244823714143
-0.10774380808427096
-0.01620346579826695
0.02917995250826007
-0.04292128716867169
-0.07399118705868342
-0.028716308629275968
0.08903768928648645
0.07750261941951239
0.07000597469623251
-0.15389925093585025
-0.007234451925777774
-0.011447659962233956
-0.021660131424106298
0.07922791389868007
0.022361893993260683
0.047845960856752585
-0.020667341425222318
-0.03722626977835998
-0.04516556249427797
0.015986821160049267
-0.055861722635425326
-0.05350198850565949
0.013332967098498636
-0.034696863820820815
0.0774632359695067
-0.061249025215211444
0.026664533112753866
0.06182603931580242
0.05363705900384093
0.03640269393607873
-0.04926960110138717
0.062022268608442954
-0.022703314624328695
0.059086258587889906
-0.013187944025276569
-0.004763124811016546
-0.013508021454859779
-0.03848411080320623
0.004815086403989866
-0.016416808213242536
-0.00770677253889723
0.0016049189724512969
0.059828568325818815
-0.023720965309939807
0.04414959688859031
0.0330968582493172
-0.0390944745335324
-0.08536151851171973
-0.09441340986601965
-0.039421869474033706
0.06600223712228866
-0.009606562034063617
-0.0543031826641234
-0.017699015059226223
0.017799239315714473
0.031204957169221288
0.041935801772537085
-0.009797004066663296
-0.09973077019034775
0.060678210218848866
0.068995151260738
-0.06499860342566142
0.007703871680523847
-0.01066375713073458
0.08133303192647516
-0.020583447955953137
-0.005643596329003671
0.028625911310539005
-0.05717136487108753
0.07147258222218072
0.0894812002922814
-0.042686234254681335
-0.01433670780790948
0.06540515574771881
-0.015830854205767807
0.07307061153852998
0.10403591020910843
0.03418858508551342
0.04405017859290671
0.09117224734188294
-0.06050186384723552
-0.03293552499157836
-0.05311286887864578
-0.0557917389080492
-0.10222876625616806
0.055973751997257376
0.032537119017311905
-0.029591465244639042
0.04058970731964498
-0.04591538725151518
-0.02677875404828489
0.035445293929430334
-0.015253140688177291
0.06776111313769088
0.050477446674576744
-0.030796277800748013
-0.00033626733128042606
-0.06008983663288854
0.013324419347716358
0.08494421408275725
0.0978390657706511
0.06439972846928747
0.10482875541894661
0.0005530788020698852
-0.034649891005544574
0.029851730124293124
0.04236572875288991
-0.030551292650090846
0.03287728624964327
-0.06849575628312574
-0.045443442527151975
0.05967326795178977
-0.0905563969810092
0.032745283982031075
-0.056909858760833335
0.05983078258493806
-0.1090314956234292
-0.008024929705750397
-0.018652233649123353
0.03414810439400199
0.04779053288320895
0.10949665036098898
0.03374682129789115
-0.08900839193238913
0.06259876977906631
0.022358809985645385
-0.06422300274657594
-0.013547447068116248
0.0769549876888686
-0.018534565649652522
-0.06697006944006777
-0.004753152115374512
0.01733496941651876
0.07145276019418167
0.09395292160400044
-0.01592232382762529
-0.04661137443567685
0.019590508761921532
-0.05508218909641745
0.11444672494859831
0.0007697174030582955
-0.016422607589798924
-0.009355348938488413
-0.04803105166677554
4.645218432259367e-05
0.0050458991085202635
-0.016106515073927078
0.011198199761304217
-0.1403816469175559
0.00578165851768722
0.002686684901437313
0.006657179858228781
-0.04737580328992983
-0.010482103381649534
-0.02349461021100359
-0.055114379617318514
-0.06222017401773218
-0.07860538329824295
-0.08089821614973906
0.003035291430448381
0.05734313460296953
0.5392390859491458
0.9287509238439713
0.571152090459309
0.20431837065768466
0.08977153874081162
-0.0693301504698001
-0.02632263321120535
-0.07503437253041853
0.009287467115205573
-0.008882142565731782
-0.015724647845592573
0.024522197792570644
0.04815444342530468
-0.004485045964233568
0.07326978151142265
0.040249924923252335
0.05303431384178947
0.0011170977569771744
-0.06777782002092601
-0.09470735256391374
0.04568558045737098
-0.0224194062509636
-0.07773663497958777
0.0006068391305892254
0.05158701158716338
-0.10087676598997958
-0.0043196360006660115
0.021410098951913863
0.0007203766877384941
-0.014962036119867931
-0.026793904486445842
0.030485334130501276
0.017287984932237772
0.02227398736041716
0.00873149770280689
-0.02807263547729935
-0.027238456771936856
-0.003554540037178682
-0.012799874413201965
0.0593678878438544
-0.026222768386417218
-0.03970755112617263
-0.08393379509449003
0.033746137160067885
0.026199738850708615
-0.023547410568079616
0.007464320317546375
0.06484576603964036
0.015585527525337518
0.024438185173787492
-0.008504858784087185
0.024274202444898536
-0.019132679480837793
0.042724357584462046
0.04746554297486395
-0.06133066054377783
0.004111491570167757
0.01626230428570298
-0.02004301732932824
0.018809833588258332
-0.050410734057036
0.014434464305580062
0.014666937261521261
0.026272207026178024
0.039080828156499124
-0.04154443655675177
0.08575479249698789
0.00807643521926618
0.011973129642502781
0.003463475408032282
-0.0026386900577687607
0.02109770585121805
0.017591669805925598
-0.041807536294896384
0.006159697950558256
0.015826723201653053
-0.04621809670522764
-0.009285101701048633
-0.004644358821519244
0.06839592947422328
0.01029177114101241
-0.0073825103997518975
0.05356249771756302
0.010277788380105473
0.08172681098063608
0.021830888246897093
-0.05145869495333541
-0.02217926299597672
-0.10641409137868396
-0.0820300904833617
0.09829671313785138
0.06870098594416185
-0.11964861582870981
0.08050279894759517
0.0627355956671181
-0.14198812350211484
0.01091997898495413
-0.02037703334967821
-0.010912634689166104
-0.005160869249410846
0.03610351330215973
0.0982796345230899
0.003091474075154676
0.016471330583078356
-0.03466193776580891
-0.025886452471103084
0.0827872498806341
0.015387786991105198
0.03319383400193856
0.02705980817247874
0.07251063768226262
-0.05607969288875624
-0.02333580026805438
0.018947320414626184
0.02626464254521531
0.04823157007453645
-0.011394024080098679
0.027087828289220007
-0.032626969722543954
-0.046932714506276174
-0.07351397115780671
-0.01592602779117498
-0.026372443081330372
-0.015862719502604535
-0.016677152581623982
-0.0657976918966376
0.04971761061221488
0.03598551171187051
0.050687411370696316
-0.01571058318101796
0.037326355538849575
0.02683461714795839
-0.017461435912165726
-0.06585209355005536
0.010779855058529842
-0.019810761907211503
-0.03873377628593484
-0.05647572132955458
0.012087303200695974
0.018780448652202932
0.071740947615826
0.06236411724580997
0.004036825031495324
0.1150282863250344
0.070102328909706
0.03862660500112958
0.014095603044545782
0.03764314223233414
0.03872388627207677
0.0032984124544083366
0.07726601943924621
0.01751892327576167
-0.02735909125219654
0.044599993503982215
-0.04715860822681926
0.03260044836612991
-0.07086710609418619
-0.023469874222341862
-0.014013363581905306
-0.027236598956718306
0.00424129683221052
-0.07358489589957717
-0.039943152826151074
0.03345620774877466
-0.024695201511790606
0.06688698556038482
-0.042099146804156606
0.04017541628584685
0.005447038660615549
0.02112605593241044
0.045701754519404864
-0.005080606648839898
0.03668164282229657
-0.008806116469154494
0.026060949473093842
-0.06048096430000854
-0.0385352518561471
0.016021911040038857
0.033123466600470046
0.03526489955932855
0.0200423268479131
0.010674486647675598
0.03841072659902206
-0.024581925928312938
-0.0016455803448381817
0.05255496055701593
0.04052629491051385
-0.0204741007860078
-0.004646402958568079
-0.06460088104339734
-0.029372343001588915
0.017876787362393846
-0.0415473363630384
-0.03252699458769845
-0.07531837261707383
-0.05980892723120521
-0.002574527024050784
-0.019668171008136677
-0.05570601473468803
0.028899410836067715
0.012310890478201017
0.11290121275990572
0.4940716185166082
0.9945632390758523
0.5072738281379721
0.051413377665782495
-0.084983267401812
-0.006629872215977261
0.0492772067702393
-0.06277468238042082
0.04450635470895406
-0.06324898649037236
0.062214345857499534
-0.0028042698983408968
0.0033927759510026557
-0.012133699970886756
0.034132516655354064
-0.023234299707447836
-0.01885140114074877
-0.07248848468479649
0.00748780295827731
0.01690080215158039
-0.03221007410084738
0.09688319877239786
-0.06293020939407454
-0.03565147372926456
-0.06807908506739933
-0.006503062303955457
-0.011044008193680612
-0.09249125100502854
-0.12840714529509967
0.04842420385030044
0.06954073011047816
-0.06134400109080497
0.07361185689169808
0.046163187988071536
0.033010692506069576
-0.02207420795178274
-0.04174331377607837
0.019482912979465247
0.11182660391131577
-0.0488867051644086
-0.028074232691869233
0.04976348620093993
0.015361666130067715
-0.05036993541357995
-0.04971997582913021
0.025214675810763205
0.004188984055232808
-0.12769907551252854
0.06377665957198794
0.046878203377729244
-0.0062442911937574085
-0.024559428979176255
0.024040641426051466
0.08936629852563288
0.04248681423515892
-0.040203610471580435
0.04813628563634345
0.03801297177083797
-0.048029832168324724
-0.05549991296367586
0.04109173922859541
0.009916664784020313
-0.01809828322545728
0.04013500483125427
-0.06576313610880873
-0.031211241337357233
-0.06218653308130565
-0.016502548080249778
-0.09578094743467647
0.05276785146691026
0.04109402368195686
0.06563473646807452
0.018781012649693313
-0.025414498423092065
0.0485458443135799
0.008293881650539412
0.09948976259785774
-0.14349666835942906
-0.09781446245014114
-0.0412394912035717
-0.057864371701936396
-0.02267939936481242
-0.038357636162202974
0.0727031420414813
0.03438253965470327
0.05668417474953358
-0.021634946097961454
-0.14659681699052682
0.04697344408866982
-0.0531928533120044
-0.09766924901336452
0.0007013470529836077
-0.05818356387916057
0.021307844739575657
0.0425221456832137
-0.04168243384738052
0.018683594377838914
-0.022114611697077922
-0.05218129890334092
-0.0025328674754280193
0.07273732113224833
-0.06431524430034848
-0.09589759406592807
0.008010292656487708
-0.07287475485483519
0.04323867162300477
-0.02628705017832191
0.03558707661753824
0.025382534492903022
-0.02392261116220297
-0.06041947215102659
-0.0006416996983123077
-0.038273358877700774
0.012796566156160802
-0.020778720058641124
-0.001272367891364789
0.08375433070615894
0.04598752877909765
0.05566871461843742
-0.04774355345654453
0.02903183857589274
-0.0510321537161247
0.019936951026291342
0.007978229906524683
0.033003620636861124
-0.020636119566538658
-0.07467286225277578
-0.03458858932998888
0.012505557785627192
0.008598389359063738
-0.08367348970876767
0.028145290269780573
0.005219556757407973
0.058637069845716074
0.03477245698574779
0.07491353543260575
-0.04079886594040927
0.03759973000719448
0.012320803176503645
0.02929527602605166
-0.04453117778600922
0.008062646781634387
-0.03782617774539389
0.00046362456754431053
-0.0077751104181030505
-0.0487057374265662
-0.08380021815155493
-0.052559023665839616
-0.0012958308121263763
0.02980278427441333
0.04886199765313755
-0.05897539900750681
0.03681710430462345
0.03488006244275371
0.022903081758228347
-0.03669647903611967
-0.007416933377346103
-0.01586258002974019
0.034359110691298676
0.006172784679124487
0.025003745739773948
-0.04313426545997646
0.04986669340767502
0.011717571198441119
-0.000933737373965187
0.026335347214920143
0.011579503103911995
-0.004736506382383922
0.0221731515804421
-0.07815100624427761
0.101357865378989
0.036809518307444465
-0.026344442000359226
0.03837489902734425
-0.04535203106098596
-0.01305026056707579
0.009762689407760844
-0.010289854064262624
0.006217020047133846
-0.050874232706935175
0.013817706708721542
0.01416725991743206
0.01547163077638663
0.0013489471581749615
-0.01646392669504804
0.03245686065021847
-0.008914343814687914
-0.025258773703194577
0.09491260343540892
0.04640535457902267
0.014092235879319051
-0.02529750217582069
0.01157886804089931
0.05684968578327687
-0.004729250141836221
0.022241849288021653
0.15271877140763532
0.46306792263798174
1.058656229839617
0.463024574411205
-0.017363968467633023
0.016512549086345234
-0.02031752605100097
0.036500998104163185
0.050462349073229856
-0.06999332519188577
-0.05799709252667297
0.007023481443813067
-0.15998435079157572
-0.012676284996697566
-0.0818711912720011
-0.036234933729554615
-0.0052590859314673895
-0.13060384897328706
-0.07421860775845472
0.038765448563179705
0.016970963684367332
0.004045514740974852
-0.07555920490012917
-0.05180230664394858
-0.008381721700717496
-0.04762223974450944
0.004502636129892722
-0.022835750527210763
-0.00894842255100132
0.05591883792525574
0.06037872024491871
0.011887539913320314
-0.06930999804253661
-0.04553821244370575
0.06257925341212027
0.034617178244850735
-0.0009135138314897693
0.012066854971323938
-0.049812091685155116
-0.006299511824800964
-0.03138684111120545
0.01656825193960652
0.017743875026134143
-0.07768641565115221
-0.046092105545190984
0.03804625359938524
-0.019774013107320305
-0.02444957385031464
-0.018197766496979392
-0.0012787581687565182
-0.08362216761915725
-0.0648344723973015
-0.006084821282066035
-0.022825106705017962
0.07542837562507858
0.027783212949087595
-0.08887205215613238
0.020826218475927003
0.044802733968297176
0.019236073086376582
0.05042335969771742
-0.00983410874828235
-0.005715440971963164
0.05842515451712482
-0.04429578945668368
-0.00551872436751017
0.035254969258119044
-0.03087349591410282
0.00987870232772015
-0.06282776269025317
-0.02507466103131964
-0.007209509721240084
-0.004945476331553126
0.05864595141389676
0.05161719674263731
0.11061542472214281
-0.03915608542807484
0.03494517632389268
-0.09330110514298735
-0.023590567018004174
0.07015753980085855
-0.03142378521906187
0.07301841702737392
-0.08660604879205665
0.01064456263947733
0.03150224576375208
-0.012568613835455635
-0.021866305567233374
0.0329436017379394
0.03840590299042625
0.04993029801649548
-0.00378364669149848
-0.050942076228393
-0.12160289377683159
-0.106202982621587
-0.07006379164148659
-0.021249156862527
-0.013323323007388647
-0.042859553578951645
0.012003738598112868
-0.042142860040557464
-0.007254001125756334
0.12731643022175873
0.025053478825908138
-0.09673492308368734
-0.023647006684839354
-0.030883285185705607
0.0041712258266307116
-0.001519125345876175
-0.04491546765303946
0.04140130101505698
0.055207444474094085
-0.1303823535947711
-0.03125245036339171
0.01102335783944828
0.022675446258186686
0.06317220752404054
0.07524232232650359
0.015790995150029505
0.09461730569270983
-0.04346448379178946
-0.028602942606679754
-0.0026968906439646238
-0.10208720765579354
0.01983612650608731
0.04614711673616925
-0.05830238721167783
-0.04120473102521828
-0.015632167566025985
0.030516942605103875
-0.0028724258400313913
-0.0178160566049911
-0.07193697266470009
0.060219530778408484
0.0452804018291151
-0.09389608793382506
-0.03294763545053408
0.005232768935886544
0.019816902192148787
0.03839642360810667
0.024628366909887636
-0.08032249864057363
-0.004568907268228621
0.009187585334414957
-0.022135079504428546
0.07780837769431301
-0.03476589803997867
-0.02710016046387034
-0.014175725173063437
0.03702684652559203
-0.015404958375640388
-0.03958952390693242
-0.024674148335763563
-0.08153036687846674
0.015428446276685374
0.011471986597438356
0.03283986917228456
-0.03409446944671763
-0.007474845420062552
0.0167907889470395
0.05163660676012499
0.08004077545360228
0.07650002380455467
0.008244817998991983
0.02825122906046438
0.02182351718619622
-0.04185400969682064
-0.024219047652153186
-0.027860543014424012
-0.04050066078431028
-0.030047508437433756
0.06607322338405967
-0.014688699140884415
0.01751938352520968
0.00921770569599951
0.029018227966388917
-0.07836924996143398
-0.025954987096736132
0.09201784927864975
0.1001937164354838
0.003013003483255475
-0.02995368150785266
-0.058961260580782396
-0.031126065786743425
0.016409488485695643
-0.024798035749701228
-0.046776140470549774
-0.05544373769296668
0.05675729199444103
0.07058693540723875
0.0002260445757793125
0.017396863324089528
-0.027467887152464183
-0.09233043680653523
0.03517275432722383
0.006700117417675039
0.05868132345660429
0.009022921537451406
-0.0856722845622444
0.040509321816689176
0.07747498408315441
0.0028263529669519073
0.04745024306674183
0.009793423871757958
-0.025737439551556274
-0.13787131838841563
0.06039055282709376
-0.016561004346379773
-0.021444876136966304
-0.001751034088767564
-0.020004468944683884
0.04368457070410358
-0.026298631572324135
-0.04075355598806449
-0.005532697742684625
-0.08940153095887915
-0.052990017222418966
0.018947654455889147
-0.023498043786503928
-0.058575922433794426
0.02616586123708875
-0.03789556438520214
0.10859865166931293
-0.05227768095048022
0.06450557094039691
0.5308697217341635
1.010149880757032
0.4923011856265544
0.04973401792330892
-0.0006425438464980459
-0.09466056508146818
0.027028252956674256
0.043737243448577906
-0.058935440514273824
-0.07331148479065192
0.027751738269918825
0.018902611020670524
-0.02951892568972273
0.04271681882843558
0.025584752556098447
-0.021587818913157596
-0.06059255442413946
0.015184098483013608
0.01517316741492961
-0.025538214864835457
-0.017237719866945913
0.07455029890976099
0.030600818516672176
0.0269935674485987
0.015676388340131516
0.03753027768629687
-0.013637601722488214
0.018421275106907768
0.043229944857140164
-0.010795564464718566
-0.0038511116641350273
-0.055833766079691975
0.06968643285442767
-0.020351336943529304
0.03942839316586761
-0.0699026625308061
-0.023087732573836988
-0.05728838392023351
-0.008447597161523065
-0.09896037368807857
-0.03616330448267644
0.025534328678166008
0.13888049436969443
-0.09975081555314416
0.017713733188317118
0.03346517182732375
0.08102008848012265
-0.10256266431715091
-0.0891222827124733
0.029211713842716636
0.058720301461949787
-0.01657309017068431
-0.012376895205964068
-0.05377649017436601
0.05584929517783474
0.011215820705244817
0.006021814406598881
0.05972050537118393
0.038289955825551156
-0.029748913063899707
0.01841630649396722
-0.05224248093068578
-0.02917987131799238
-0.08561124844651662
-0.05605874352066327
-0.0093908082161212
-0.12941825441396426
0.059611579066779774
0.036302748294479256
-0.0511333416931222
-0.030758309866974132
0.03317480546802807
-0.010144495939329338
0.012994242835335464
0.017827337646463035
0.0360532035693513
0.011279534980253952
0.03471951408922932
-0.02303125360109016
-0.014285595325171808
-0.052731708544819456
0.04027116888700183
0.02325998038208911
0.05517691570756807
0.011380806723732371
-0.0024386054023933803
0.04788388057895083
-0.028037724537139805
0.10782541152163579
-0.04215978686052125
0.1326262255631385
0.05579068141305388
0.04528767988291669
0.0687174597645627
-0.03990623430939197
0.020356668665567314
-0.13647532607528168
0.024321481123013605
0.11685781303063135
-0.033913466936764114
-0.006479987064837972
-0.004483187609869143
0.03600067031312019
0.006924997342993121
0.0014817546766695724
0.016028787413865778
0.028219672460687063
-0.03376758984337901
-0.043718054467689164
0.001673008190267695
-0.0989578258916649
-0.032869359668069247
0.07811243519658799
0.03682038129142006
0.002215898007155708
-0.012361278497632555
-0.023865871934573825
-0.02646815682759833
-0.08783597463126619
0.11019175066419123
