ecg
0.08618348943770059
0.4929178857788332
1.0921192232697479
0.5662504609013859
0.13803969620119258
-0.0553022631481668
-0.004301292644510606
-0.002642475139049674
0.020380621977008944
-0.05018042084601554
0.03060565987691762
0.07240717046994409
-0.0666899067875877
0.06794352850763379
-0.04441276762703009
-0.0019495315392052067
0.026863427961091188
0.06956885308513758
0.032747285549125434
-0.019673748149816202
-0.017492099381145775
0.07027632577244773
-0.042688013999035004
0.06198589509224656
-0.0971538962338307
-0.060592166059877876
-0.0443911585381074
0.046006390025740376
0.06297044178838034
0.0060074200069207785
0.04437947433675629
-0.03417704998135517
-0.0435462002251987
-0.048320291349945026
-0.007810057592333135
-0.00036968703352101897
0.07404741145253045
-0.09684261929249705
-0.020323067784571682
0.07568171714914078
-0.1019962298304701
0.1034921072137724
-0.029139173706067785
0.07188841461475323
0.02523283179191593
-0.11717985634467697
-0.0029018568360190534
0.002225937995522198
0.010952836390130248
0.02116817738168208
-0.04221081865573432
0.07821001239254205
0.02004252715459737
0.028598102705451836
-0.038171191874764254
-0.06584757965829535
-0.052277700447609966
-0.05667595596069032
0.051058491777038695
0.028287562195920404
0.027009752775740678
0.04044992558719718
-0.04885934292804174
0.023645405120965843
-0.01605712841694344
-0.07689717273601135
0.05445758810607007
-0.0008607376834320785
0.12352590112831066
-0.030438468144320593
-0.023841689477913316
-0.0203986558605786
-0.05525768610330713
-0.039201413006033935
-0.039377153208231416
0.016798437997772087
-0.046114880119489304
0.03029730874099449
-0.004436917467894757
-0.010178412132250183
-0.03578435410129282
0.02918485021739098
-0.03195132157531464
-0.054236908606388995
-0.04058675863001321
-0.003677122743226307
-0.0025040604199354777
-0.0534772973740211
-0.0077909089090987945
-0.05277847600663974
-0.07508275452547758
0.10038297030446655
-0.01974812455162526
-0.0457174397692596
-0.05089267336187231
0.014785014721617994
-0.003947044770850955
-0.009233555095424074
-0.061062032639954834
-2.3886292240842804e-05
0.06590679327413027
-0.01445480655501743
-0.0724661530662357
0.07716644401427125
-0.03652256208303589
-0.01842402524146934
-0.0582528768479508
0.025556418130480815
0.0537786613464738
0.004017447788857821
-0.051322960115458394
-0.029115857988874828
0.06314175860106735
0.07615799411499691
0.03298084029667541
-0.02031534679588109
0.022960261264574053
0.04214368863594007
0.020524937987460034
0.009647655874206835
0.066944194131304
-0.117563359307378
-0.02095463369096939
0.03727034258059996
-0.13295653398852106
-0.0024986292031318816
-0.025269512542470007
0.049490620267303866
-0.0968979002215284
0.001228785135945632
-0.003102766306377608
-0.037871175301531404
-0.060679353570838736
0.00777709372465817
-0.0524451269665496
0.020383912618172084
-0.030371712749625697
-0.004929624567536319
0.03410538154343814
-0.0037982125786983883
-0.030117725255406066
-0.06430419193112778
-0.05063957265635119
-0.04521594943731525
0.0882965380058585
0.011110797301336559
0.06098039648938445
-0.03925001814813921
0.016118388379492525
0.10840677732535016
0.0451440068834452
-0.026552062467668322
0.058341612167396986
-0.014729731233019273
0.06927364938828218
-0.09637079260016478
0.006344083083659248
-0.020826167073502055
0.009075139697042447
0.052563272237978846
0.05346918807130366
-0.006887581419513363
-0.06433524873039992
-0.013215250752536465
0.050526182341601125
0.02490248986925713
0.09178016192759184
-0.00889955767738692
-0.02798593067986796
0.0034734171725890025
0.030585880467794653
-0.02863937809172551
0.00912726614211355
-0.07668254915788758
0.07669907200736364
-0.013650117383522523
-0.036174981074035335
-0.028790386913332966
-0.051820104255193046
-0.027745081371691512
0.0497808873759364
0.030769910005346686
-0.026213585658061464
0.060891916763752635
0.045097239739025206
0.013930742180504994
0.03679052888371377
-0.025018529561742095
-0.015432783340549719
-0.07178700471455524
0.0595488824003621
0.030435546812288574
0.037898490355067885
0.0802319924960536
-0.02845013621324325
-0.06450795714759341
0.0026463427282741097
0.039272756882221996
0.03064353926909595
-0.018752519167910764
-0.06430781355708048
0.004801436790706779
5.3204650335451426e-05
0.07591647203617902
0.5514956867447326
1.0406633086926784
0.5243115396984005
0.17682035136235993
-0.01120198288365509
-0.028113723409487743
0.02566442006135666
0.014768495085312078
-0.02811660426988591
0.005014503008591291
0.015410473552559352
-0.016921302811314303
-0.033270714752345346
-0.01909396939459452
0.023495152536861953
-0.021980373292406714
0.05679957578699313
-0.015022323511629002
0.020239943631112603
0.042255581360368596
0.031087626219638426
-0.015945501853350825
0.034578503945194815
0.00848899522227101
-0.05569846620560313
0.1507366942851217
0.03956810177033456
-0.006404961223240001
-0.03265728490539067
-0.06265852160975514
0.021168332756525538
-0.0043048189460554
0.03286740894957213
0.0019574126646944422
-0.10002992689628692
0.038973293854011916
-0.027636810140567954
-0.011621773276485673
0.061407400356367325
0.01795076706218642
0.04295918952467627
-0.08166447190587203
0.002137936667504048
0.0671246406429115
0.067025857973753
0.017563474611142823
0.006835319949013298
-0.01676075001963159
0.02588081098350563
-0.040643449363880965
0.028078607627824676
-0.030906313664740965
0.03822290108207424
0.07243979114595792
-0.07439164245663454
-0.017747668223427018
0.06511506808941514
-0.020972145208229414
-0.04135128363712345
0.03622614041322874
0.01977773811365271
0.0239471109847575
0.017890771540749993
0.02395082371180839
-0.07800768078173431
0.07470984718744998
-0.04874905734174655
0.024062879322026273
-0.002114902846819225
0.03677891013054574
-0.07352574257690549
-0.0694863292236118
-0.05027173554808628
-0.07455593860786196
0.01769393164325579
-0.050783525802797186
-0.005970728818478172
-0.0209514929953355
0.0012522295398307165
0.09212236234893396
0.016809741767215534
0.04002126672716755
-0.029257927983238886
0.01828399172256506
0.07576161472669264
0.05048368084527097
-0.05680339840038998
-0.007373497500022958
-0.016430672607594506
-0.03320880218988198
0.03810906452901505
0.013743031438208708
-0.057799509971374
-0.009485767883222784
-0.010241527172176796
0.022057287894937178
-0.05677720268096906
-0.00676590348294074
0.03099010542624689
0.04878931176998643
0.04397235438408067
-0.010307073643417888
0.04432982164487842
0.031342073601463835
-0.007194961716184648
0.010055500686403682
0.004759964219873162
0.05589813100709623
-0.03195075033098939
-0.01962968587654075
0.05715631107328428
-0.09411864499680096
0.04962881872196584
-0.023278515209689418
-0.04003868144340779
-0.04434535593983098
-0.02217981732146289
0.0016400082578706386
-0.056478459490987745
-0.05543573780513292
0.007063358781048862
-0.11159500583745988
0.05228268763156229
-0.09190855312050988
0.006711305859687974
0.08329342737737468
-0.05460507059078565
-0.008690560978520874
0.04272363440561337
-0.09698025047673174
-0.013337782004126539
-0.04723222026332595
-0.02785405593125272
-0.01474695454006553
-0.06435100733972023
-0.018611186639678586
-0.06382226247653004
0.13310396196517102
-0.04020994803513769
0.027496418877429055
-0.002453187062721771
0.048071784294164296
-0.03537505653726235
0.03478736576836547
-0.04411945673321998
0.025607516348552264
0.0286470419937655
0.030763019359470685
-0.07747544932572183
-0.007318636897312031
-0.011898338483339745
0.06426442097464477
-0.006472896394260932
0.021676096176833817
-0.08637726343309976
0.004416169874177035
-0.029590793550863054
0.033287067427372384
0.08702797861745114
0.03192632344680244
-0.0315451611345005
-0.0321861778033115
0.018286479592685128
0.028877109465598533
0.042844319045543804
0.008411346793579215
-0.019225056815953344
0.07285230927539518
0.023889813400860445
-0.01968920268169709
0.031137857925353226
-0.04212524392017928
0.06396826094112222
0.03536296929359106
0.037212745236798295
0.03767471654028484
0.030145461677904856
0.019592586257077382
-0.033876785124876276
0.045894702895590535
-0.0017992892239601977
-0.040344410086304634
-0.025189544392651603
0.08416161410347849
-0.038318930146020364
-0.06671895377276017
-0.02792954775678734
0.07615757182857177
-0.026925083354623836
0.07791050875465066
-0.01982014542264158
-0.048649206172775405
0.012410118605227746
-0.05910087134248764
-0.06471349188856378
-0.04156582612262769
0.025765921654677795
-0.01637075348875223
0.05193562671231702
-0.011323054793345846
-0.017754150685301836
-0.0010009120964310978
0.033549187972048575
0.013389686202800642
-0.03899245499090598
-0.06975396676985483
0.15935308855293248
0.02560489830050279
0.11245596791101356
0.023097771571724973
0.022175294844136773
0.05243827267028062
0.0016228955353115367
-0.013848871653576768
0.08311790771196893
0.5048263897978909
1.079465454975378
0.49995843610176716
0.08082084269066278
-0.025080430468719703
0.056816339345136316
0.09969995835269074
-0.0001680086239595163
0.0011957546347128086
0.04124950584717791
0.034534922531259137
0.02551018662206054
0.0006097809896660042
0.1014987261870264
0.012214527094649406
0.06909660731781068
0.003065134565887199
-0.026234335512681617
-0.10971046060248842
-0.0979939824502635
0.13569033289639143
0.028629567865144718
0.09923869080801519
-0.06397990473100765
0.005761277779453906
0.007798822748490449
-0.00774944903752431
-0.0514049602388088
-0.0008408885297251185
-0.040086317757465774
0.03977599561424944
0.03379505769062555
-0.007025134152942581
-0.0385008378623563
0.050643461643820435
-0.06147145940540708
-0.11675032041288141
-0.0403736576201639
0.06391173965166434
0.143603094161974
0.02869471613482107
-0.05585566627832792
-0.0469075075161209
-0.04724166562733528
-0.01518475533888385
0.01343561829395091
-0.008068680507366685
0.07092532359721473
-0.021928883145721154
-0.020252848165959614
0.04458396207216301
-0.03564597483571109
-0.05650449269332633
0.04043455333077572
-0.0041489140449542435
0.06998745611942785
0.01599765319686473
-0.04343522243853472
-0.0684378852993519
-0.02697280129498221
-0.05154110045982177
-0.05404027572832285
-0.06131885348246709
0.09312708887677305
0.08865446509156204
-0.01894305303234282
0.062235047661939116
0.011400810934396719
0.036730789455322016
-0.0020077089853679825
0.013696159792251915
0.04458183051642379
0.04713858611448958
0.035667125076883535
-0.013616259080754518
0.013341220274279857
-0.04282467947923676
-0.1170262220827967
0.018052901697383855
0.04460536452418287
-0.014529646287406767
-0.02839905094814916
0.05145871487673073
-0.056774980708505174
0.05586672208531204
0.037233060588363266
-0.05017278794208838
0.0019428019204662421
-0.0463829826948748
0.045741442347801385
0.041291685095878605
-0.03769639469140159
-0.05698751931015274
-0.08796757102258529
-0.054956793789784034
0.009477413867723713
-0.0032683331755541433
0.0928418798768118
0.011577377542082703
-0.014758342527138552
0.10233594934939501
-0.0391438037965842
0.028440484210729762
-0.009196111635403542
0.05800144493823516
0.04077238974960115
0.1174874704613827
-0.08885012197373142
-0.11765051532966818
-0.0081153685157567
-0.004787812862188245
-0.046992182495074614
-0.019956662603890746
-0.02700021651381488
-0.03106414151875997
0.0034614338897700422
-0.057240405027224266
-0.03639989170782235
0.06665240609749014
0.014571892097364697
0.05516758862172978
-0.003522303758324387
-0.00656554175078328
-0.0024221765376618576
0.005149934586775594
-0.024232962530487925
0.033799617627549454
0.050891605341179286
-0.08434360916087326
0.027437073248591754
0.04362928551080078
-0.02908864499145002
-0.015629011658807423
0.020192231817833896
-0.030464428906661203
-0.06263177162026753
0.10553445458637101
-0.03952788772398575
1.845153540069687e-05
-0.03604709179908508
-0.006906354637714284
-0.07830517332275959
0.01394555636183028
0.036000767175571956
0.0005559773761939787
0.014421173008049208
-0.040737820584660495
0.032222513890438426
-0.012393333088237823
-0.035985751838516954
-0.034131241723844255
-0.02314792177580495
0.00751633773556681
0.05071772407676483
0.029908049613814387
-0.09403590221947573
-0.061897726698228954
0.007577383203811174
0.036131388852702284
0.002453366446300954
0.0077448112607310235
-0.07513535762412123
-0.0012353405048008315
-0.052397158034215165
-0.08903892998682528
0.010592912860582686
-0.006625924078661661
-0.07318885348457094
-0.03017808374863238
-0.09159088878978733
0.013537232809702949
0.03908624844099956
0.0637679479393574
-0.010928180416938375
-0.011857390562096311
0.13082985492390328
0.0002735533093712864
0.08759898355959306
0.028718297056297828
-0.017743688158500245
0.0507568836913782
-0.015127283968105304
-0.03688007131677154
0.004139961778240048
0.013190247840644674
-0.04178820954473189
0.03668027414563201
-0.036677691550613026
0.07748184390952854
-0.07790253488635716
0.0524214883079783
-0.010715800662783832
-0.05733374860176828
-0.11937227506810495
0.02003363142492977
-0.007304863557021354
0.09286709772155488
0.1168416532229089
0.011354911658825512
0.13262666555363872
0.4379485032162412
0.9782567979324177
0.5621789018398377
0.1322492969236134
-0.06604877146105707
0.01417624883499699
0.09887219404375672
0.07992689210486348
0.005075326219596526
0.012581202601654762
-0.028068209805896596
-0.0620234422369435
0.05836727150102572
-0.015374405764756176
-0.01861830894130874
0.046469715633200945
-0.009489104963289065
0.007799070874702553
-0.024669234847377902
-0.0592950601971889
-0.01558693424310504
0.10525577626030061
0.00805038492468869
0.1266065427359368
0.03191916008863457
0.0475641893320806
4.303656729101564e-05
-0.09836965063527256
-0.01694623075571842
0.09936339939341134
0.0174036050832812
0.11105715922440883
-0.01726010623534806
-0.02093829003329229
-0.021782489452540826
0.08704788690985442
-0.011312678069092625
-0.0014253823053401874
-0.017221073945021117
0.012379275613673135
-0.15544186623022457
0.03177329345063526
-0.0468460117081749
-0.004143582339412579
-0.07910227986376912
0.012119363386856511
-0.046080873363245435
-0.005535186931873037
-0.0336565624891974
-0.0008728612653043103
0.0025161925586807527
0.02613447436910148
-0.08768973398518312
-0.051907331524224
0.031843372294026166
0.09490715256279761
0.006667826002940274
0.04674878600897156
-0.09954504247788183
0.008152620656122725
-0.07319628700501905
-0.04996874791927817
0.026562869192910916
-0.04334818820101132
-0.01515704269683571
0.0021488776148300753
0.07431794989445731
-0.03751236444963188
0.04958492574355225
-0.08037203476226469
-0.08079975478495179
-0.038831822972119505
-0.06210708122743783
-0.05915345839668146
0.05936031745299794
-0.008310330793300612
0.008580581989020468
-0.020352716093504745
-0.019967447474072628
-0.09864702198164321
-0.0034489325649463805
0.11042434531029977
0.03123724755695011
-0.032079398553572634
0.00035094071822585357
0.045436356859367664
-0.10770060027898416
0.04963522257873074
-0.00072931637040673
-0.12897673799458884
0.02581820646680555
0.0029222497552075545
0.06142675635199403
-0.004352500757882154
-0.044241232051965534
-0.09800180169382346
-0.04272854692726908
0.02882198532121963
-0.08767944212545213
0.13755802445234058
0.02617970808823048
0.13183870536510198
-0.03423303326544274
0.037662510766226204
0.07114499161674159
0.08735387368713056
0.05154934402416309
0.07629537562370535
-0.06601701835667892
0.002501828127669898
-0.06949245810915838
0.07497026127053996
-0.0715738170216179
0.03571307845189733
-0.05039178722582266
0.005059009650175119
-0.021630225997407986
0.07992405596795206
0.035046230720310566
0.023344297711544833
0.05480554229395949
-0.007770645703054223
0.024641795209006872
0.03091814654520953
0.03227907109319567
0.06029777882008391
0.03740002464602452
-0.03686993585704394
-0.062036452551838706
0.040986437823529016
-0.062131137504214756
0.07492827436632037
0.040446999742456274
0.07908968814503463
-0.02100271261593163
0.13868658869169906
-0.014208297218574906
0.016685439047969475
0.021987603336449446
0.024292949476602193
0.06623037729390795
-0.040643633432529094
-0.006975220252464111
-0.04773131295511102
-0.03639000024591925
-0.05967074656196583
-0.032643061287297236
-0.003512016648798142
-0.013707356183767894
0.041099031357006266
-0.03637869080132955
0.024200909072849636
0.04395990228092852
-0.03301213087929666
-0.04481297553227335
-0.04760588793834764
0.016108505934964948
0.045321726851837975
0.08256115583568857
-0.004697810675246453
0.050226840194501333
-0.045829309437494914
0.009587831872466555
0.032226368254536314
0.0893508194250565
0.00501121055922818
0.010997652406277826
0.02765405867394278
0.004572243193225697
0.022451405567983966
-0.04472543406967802
-0.07867438298760014
-0.030262693500051355
-0.05436461116924545
-0.07058834001920809
-0.03171410462290776
-0.12167148527968474
0.028179590341598094
0.06627430638062531
-0.042907272337468993
-0.04736874106436822
-0.03549804333859044
-0.06189077539727095
-0.045494411940125594
0.04697348402664805
0.01098152056825869
-0.030984227146722672
-0.040434131545839386
0.007992293481799773
-0.07121841192603622
0.020689931294100156
-0.025857046177642153
-0.014070401337404982
0.014562006469755162
-0.000609877889030685
-0.10773646553223543
0.01921757421597461
-0.05418210576766567
0.03488536877255832
-0.009142868659070321
-0.061086420156877375
0.007842877889665801
0.10212494694922512
0.08676103014180753
-0.03920531572251554
-0.04531364839397787
0.03649485471173209
0.001565656740048195
0.02767482911099116
-0.014305587068462203
-0.08704673638598552
0.010129381204683449
0.023787547909170967
-0.04971116279872647
-0.059777095649782744
0.0167918255362439
-0.020364966958271627
-0.05256379139577971
0.036378415637509
0.18357570881727292
0.48735486465321165
1.0544033807287572
0.4066939435355108
0.11135741451831205
0.0015721172520341818
-0.032814894965711654
-0.07208715511393765
-0.006893839305873968
0.034488363367858446
0.05632421164063826
-0.04380496130707367
0.027232394466289517
0.011707019257315198
-0.0655374779962613
0.03613261064215367
-0.0023524539842062313
0.06361311144493444
0.02195876940450902
-0.09047662398544641
0.024002790539871727
-0.03044959005772931
0.002590722764701088
-0.026340853342749094
-0.054000523548040615
-0.04256573072359065
-0.005703242330451047
0.011544505741716837
0.00490829907726598
-0.008778925847028784
-0.01998124665834645
0.04447044894589211
-0.0310049389228157
0.02046635304371955
-0.009769585295445294
0.03147900995060274
0.033502657895841136
0.003565308922879027
-0.033506437505618894
-0.1302579559143749
-0.12280577447161872
0.013613405020987582
-0.028565302131915445
0.07519100289999112
0.08412545784658944
0.04415506047985743
0.045694595195648856
0.022990402390650075
0.11546004847638758
0.019928253869865686
-0.00195666341319579
0.014192376027154919
-0.04142855846292967
-0.013938229265119223
0.06398508070997397
0.06072734684716346
-0.06930303897072843
0.04062386897675495
0.01986397570546175
-0.03254419900911402
-0.065625147823093
0.019901117996980824
-0.08866128285303651
-0.03173570804558889
0.07211425415231772
-0.0005663581416263134
-0.029124806717943375
0.0006736408164444877
0.10841373028959894
-0.09490014266277998
0.00046063801549964365
-0.00430285799448643
0.0790159172281067
0.05767979284702686
0.08303538214111322
0.01393883149928915
-0.03477835531882139
-0.04741024854332506
0.040525066352693734
-0.01026955669169121
-0.0038886628857082934
0.0581592149625893
0.02238551593769803
-0.021352180672225773
-0.06321137856796484
0.018759620342925346
0.08920364706530495
0.002310605196150293
0.0009030363502561114
0.009179078213985921
-0.04640322430819219
0.006472413956056248
0.08862562780155626
0.05198692622749279
0.005501018419917851
0.004954233415170834
0.014075500719613485
-0.03228467391726633
-0.016379112715159797
-0.03139118084501579
-0.06136673310166716
0.13650003501837588
0.01056055395755174
0.032895147109301213
-0.022871689122287334
0.07408615788987115
0.0021008064373759694
0.020634138275832735
-0.06498949716251994
0.10773083123144041
-0.034938782160926
-0.0006611756054844361
0.03904655767247813
0.057291900130621035
0.022279822071276528
-0.09270229864676316
0.07727868695133726
0.026214535637352834
-0.008173708258583089
-0.004897203849730461
-0.039503924729362455
0.06055596503057247
-0.028904261405851495
-0.056449951122279324
0.02276494389182233
-0.035580671608435595
0.014408697638659202
-0.030009378756619527
-0.08492759417170198
-0.03815662762812105
-0.07667064420539277
0.06099835030266873
0.01476448072944584
-0.049849215859855335
-0.04721319508496445
-0.020125790114915422
0.1121899387269305
0.03386832611438009
-0.013487742328860096
-0.0689925585479725
-0.05393982370741565
-0.005862771312001332
0.031384236415302955
-0.08460956995290825
0.021438212717406757
0.01885978436137919
-0.05817566427995772
0.035124456063899266
-0.03407136155871009
-0.02259270270426963
-0.09310125625667819
0.029499447930755887
-0.06004777969890839
0.07925575990837502
-0.0024655120048056203
-0.11831662596246746
0.025764274667417642
0.014907295428282761
-0.05204073653050502
0.03130168571578189
-0.050839482592024005
-0.0065018356470122945
0.06361251537536751
-0.0035628156223773697
-0.03900548725370065
0.009661808940592003
0.16067744211367171
-0.04944338856325571
-0.020529703664468477
0.041557814978922664
0.06984333275594488
-0.03030278134968366
-0.0182451157623466
-0.049495418512315925
-0.005324967198161244
0.02929618228533
0.03919333459624071
0.0374481694904929
0.03356960638161133
0.004448803446985095
-0.050956933764989554
0.02011680412994402
-0.06421050066885864
0.008355764889780954
-0.034870651001907366
0.006973245634636884
-0.006658711809392212
0.0073423290368527724
-0.02642011737608443
0.004883854981514229
-0.06848829121098979
0.008929360173067846
-0.11258866688240894
-0.07710321009756511
-0.011193497374372084
0.00551506391393962
-0.046302918693171574
-0.04571713409673474
0.1598013891460154
0.4905498891784161
1.056863631927001
0.5314817098255845
0.05546402075581448
0.02284136599425936
0.01225706750321837
-0.06928091678081821
0.04729947433631757
-0.018184476686959484
0.021920198439007124
-0.010719176359855757
0.04177990204476145
0.001651771815038984
-0.08052104420156948
-0.012951517275855431
-0.019145391393934494
0.06807029061981695
0.08115508543137678
0.010076835391320992
0.0615967928072621
-0.0374554931984631
-0.01657073466362424
-0.01299575069722031
0.029144165992191856
-0.02461219352119613
-0.012882570243640735
0.00034161140228658465
0.015856562808723808
0.09551756712356987
0.02347026714297554
-0.027719355628199056
0.07380635175098567
-0.0022807854341322406
0.04727785108673699
-0.015628485738735553
-0.00374272303212106
-0.020407746394016282
-0.06280974424847251
-0.01674246249534145
-0.01014928863816103
-0.022359746345030233
-0.06013524362934597
0.020303766979616587
-0.01109851969842354
0.0108668213393701
-0.03899220914812973
0.03810109953898472
-0.03356648761256643
0.04737379211689374
-0.13747785057543824
-0.020339255383027388
-0.03209760120931984
0.05163463547466324
-0.023480889372783646
-0.03474941558907579
-0.017651453876450268
-0.011798463873394595
0.10674196268708036
-0.055317511853662515
-0.0009973671017480493
0.03740365813899712
0.06391450978474797
-0.020117382929298846
0.06931147345213937
0.04361603126734101
-0.017404729383702546
-0.013981369756234627
-0.04334152428437302
-0.08853829941757095
0.025058614217567072
0.056915117980220434
0.07410431989956326
0.029409456569428612
-0.02008284436538946
-0.010966015231495187
-0.04551837223847716
-0.03952564039744152
-0.08871586331696335
0.09810042675965545
0.008853382627486124
0.07125357815324011
0.08830218162758856
-0.10725592996252807
-0.00920516415001877
0.03281192307311715
-0.005921049847710473
0.017897763167877924
0.0018752864054443466
0.05397203651288193
0.042129620270500504
0.043155544884736295
0.12401965091883849
-0.025763107766078604
0.029924911105510994
0.10275815598310044
-0.01483764322210075
0.08051423533556407
0.10727551370352253
0.006503784337535705
-0.08805527752166055
-0.007591270853354072
-0.037070747562784154
0.0162875920816871
-0.013053453886852374
-0.0028813116783151863
-0.04755049238634219
-0.07051150812533775
0.03736483568900131
0.020013824467532946
-0.03115527818774344
0.0262169645005932
-0.03182349591300556
-0.024297050171866886
-0.009854677594536
0.013703498448667509
-0.016699211015438493
-0.02584963572685683
-0.0075552114321541
-0.0009012334513384511
-0.04528024315838096
0.07819725766702276
0.015013449976635668
-0.09550997312880322
-0.02176252834224519
0.03781706564866494
-0.030225117875843588
-0.08471515378864147
-0.10179456348381657
0.022881669915807
0.005630060887301215
0.021623221541413107
0.04732076666856293
-0.013526191424847895
-0.03929289083251071
-0.07850052708581895
-0.1326414726972292
-0.026545461770005854
0.05860071340655207
-0.05317192581015878
-0.009087985801065084
0.03919279855988678
0.05054949159479225
-0.030974304652727103
-0.13071609696155062
0.002671582764865293
0.07486052903215087
-0.09235426212551756
-0.09785066434732805
0.012251917017013838
0.002113266227485512
-0.027730920273567168
0.024201431380387748
-0.03524546463194094
-0.03755527776585266
-0.04235291939950676
0.009417663260295644
-0.007378527504101083
0.03545648573708283
0.0749737715844094
0.03032987494558085
-0.013389183580567027
-0.010532994239164678
0.021477705972756358
-0.004248660825821243
0.012981368211230802
0.018006378575310757
-0.01395632361240127
-0.020435790715753785
-0.025585753271178565
0.0014487749083855212
0.024297301864991985
-0.010136158896404726
0.02983750973745765
-0.07288767480610588
0.034529671427343527
0.015916711798112045
0.022179228788975006
-0.026974879124441645
0.02501318852188461
-0.06556905506437617
0.014879769535560763
0.02255951621238595
-0.007892070094176605
-0.06714621123783664
-0.04873960616815869
0.007153592377670372
-0.023198122926405468
-0.057144284676189296
0.01673616991828294
-0.050123325233910054
0.026796820985716802
-0.03763722928093968
0.032960330470958955
-0.014615116358138523
-0.07163699722811283
0.1135980228170081
-0.044620941413932115
0.03272745223949392
0.023936868769123418
0.0094945898300112
-0.0325562524083831
0.0595198685588103
-0.037483482029188185
0.07212516585088234
0.05293807743124257
-0.02809087691498366
-0.026720225089983337
-0.051907150020943454
0.10691616548513179
-0.03448918795992263
0.04308398821012365
-0.060110037105940095
-0.025908861986928395
0.15007509471517258
0.5615572056123801
0.9378222520362742
0.4352733802194893
0.12719326247994905
0.03373422626005745
-0.027575040056086297
-0.03622712629750332
-0.07911669359876478
-0.04276897983216507
-0.07646282373440458
-0.027436982373833286
0.06970078457689353
0.05398374469593264
-0.03832410199364941
0.00023150860580873906
-0.005160094250568087
-0.020968821589138938
0.010394343005478684
0.006835007575152104
0.03813097762999365
-0.044366849590637115
-0.04693727337716705
0.017272034154468093
-0.045559780985752064
0.08582858535674359
-0.025555377940057668
0.023364038788335324
0.046358361770829554
0.062244958425714904
0.019078659820235832
-0.04862764609261443
0.03887936691627251
0.07954863922723815
0.08808932814972534
0.017170211897424466
0.006824550548863305
-0.025532330195791847
-0.028984689558688527
-0.03818299883177793
-0.007443397234525451
0.065584368494877
0.002554882204361758
-0.1259105293525901
0.002587063531282433
-0.02279303923043511
0.013818602847885565
-0.03385702651796803
-0.031287058674437866
-0.0024305925434253417
-0.047237626706677714
-0.05669156134305309
0.0191669103574383
-0.07023305843079478
-0.07469116422920581
-0.02941197902095859
0.0901833722370935
-0.06976393046865358
-0.018286192469378557
0.04436446982377853
0.027567536359402147
-0.016667323312239437
0.06620223310875795
0.05427538022774922
0.028206203031494403
0.03751491720510175
-0.00705509268225307
0.11129294762185252
0.05654793758166343
-0.012122155628366812
-0.08889196339526373
0.00047175056395249836
-0.04544179041292193
0.0740779737639964
-0.003578398994168391
0.022791240748830578
0.05072359469517551
0.004948272497322768
0.007603547808415135
-0.014520694643819318
0.038116237669455946
0.10130556214303144
0.05270078126613603
-0.05763129184209292
0.07756312287468758
-0.0609942598371926
-0.046473575589460366
0.060437933269411805
0.035645524186963325
-0.09079808575699219
0.011454112125028938
0.02790400917191463
-0.029020059287155914
-0.04698898483775213
-0.06025517175462926
-0.034110669280428184
-0.02467619859260116
0.0023011686833472734
0.010510708221818769
-0.01611686314266103
0.002392901023531345
-0.03532159824874608
-0.08387698665102634
0.0008480325058718383
-0.05891415952589549
0.04664523740384368
-0.004589529944762011
-0.0784092018005452
0.04088888566040044
-0.010095396826851101
-0.0016465481876431808
-0.06245696584768487
0.0850776029992353
0.01705810489547634
0.0024334036337253064
0.009983206025621277
-0.04736669078775503
0.02674350724858591
-0.07618963655839266
0.05564222058031685
0.02094000656126349
0.036664357356196116
-0.12591359356115506
0.019013890112482636
0.04744896755524132
0.02250705018340524
0.05941443816671341
-0.029799977398652575
-0.024962763661427023
0.028651743686542986
0.025928880367680776
0.09374740293889618
0.07132574486818805
-0.06165980198004877
0.03056545037948923
-0.005545405674307334
-0.08201216232315715
0.0385353857778315
-0.018874071753325967
0.03414860768823084
-0.055663952778048836
-0.0724385639880493
0.007174145308963022
-0.07168017690848978
-0.05990974155566623
-0.03008658552738566
-0.014751116759008715
-0.07152083386381551
0.0604996953838911
-0.019932862331139348
0.007949133906744404
0.07125013302250055
-0.02507133954070901
0.0575359264841694
-0.05001092991921006
0.02139165164552842
-0.009570723626615145
0.05953225237062276
0.00853382698463069
0.01955723140440061
0.013696999443722213
0.05644598961087676
0.07158389553543015
0.050325244981706735
0.008289171817824712
0.11842216405819604
-0.03220726450131326
0.04534668969111028
-0.008140894254192935
0.08019841991165337
-0.09150918618354528
-0.006447050314441988
-0.07326261103394945
0.09393971186613713
-0.09458718662900319
-0.011129075300408443
-0.04970191968869272
0.03678537117234545
0.017565906446484886
0.030379934181097606
-0.025417967888796345
0.044823557270544434
-0.03314747201064989
-0.033643633329728084
-0.0023145066370982375
-0.1017145312558646
0.044510802607213726
0.048083252595768046
0.03880003396086185
-0.028202981149195228
0.06633489681755787
0.011218690114873534
-0.02599845943583213
-0.04327730005375255
0.0765000717079522
0.029407250555326853
0.023931610379585966
-0.050010113409850454
0.052122249053747675
-0.03554972431776238
-0.01363549538724601
0.017591739764078664
0.05011081571013092
0.0633845038756237
-0.0086152632116192
0.013874957435557757
0.028804395786194315
0.46323635412731035
1.0288441228209255
0.5210773347877207
0.093204016693622
0.004253824755227872
0.037353751431021695
-0.03765241725336003
0.012671313453619654
0.0765078409685562
0.05290103033676652
-0.02520939371735841
0.0025271342092921443
-0.019904534703326288
-0.0009001819876196393
-0.0270399348309846
-0.0033188431423565277
0.0037038031763856807
0.014654773490020749
0.016716182527597576
0.0009822178178108593
-0.10589676482394045
0.01032320428890523
-0.011966704673278527
-0.06010525401496537
-0.12373255286145082
0.03576281206045558
0.026440559625729172
0.062426828406168824
0.09866129358078077
-0.03641352235442976
-0.041198876906267556
0.052512482795138295
-0.04883485590606143
0.01968019283606702
0.056215781727652014
-0.002138668270259572
-0.023952420758770965
0.08724485814001534
-0.07628832339879944
-0.08018688665879464
-0.08847102971765487
0.05824126330887811
-0.053618068129868135
-0.002961855862717073
-0.012365857285543432
-0.014807878526880239
0.10082340863640803
-0.003269853849444752
0.09298160827305393
0.06476430198467466
-0.10533048067263028
0.04371065112535094
0.0007727670485324859
0.08488844539259288
0.03759075075257265
-0.026279740492178478
-0.06558490838879855
0.012902197556004222
-0.02493476983157056
-0.0073354233345441534
0.022248493056772553
-0.033615650156108734
-0.06717950260534948
0.05392232893913793
-0.013525502685874172
-0.04783311385548601
-0.04658750093550617
0.030829164104844375
0.07193203060929043
-0.03518954906258272
0.02557887190088457
0.010327574384675194
-0.011168564667566702
0.01461482621171949
-0.03528839064441687
-0.05808521144953865
0.016181623916476047
0.0075825022716100934
-0.05334843458306865
0.048518625797445425
-0.042002059892202306
0.03940335197333209
-0.010337476302760596
0.038113991139647384
-0.02806659155930634
-0.0024678805306395674
-0.002222077621928808
0.087961674723848
0.01262296731369666
0.028603077353179192
0.02259391974707185
0.05714158499633425
0.03373911806627911
0.07000698100859029
-0.03686550949611689
0.011108701501555181
0.0026123059128551327
-0.021272460544937935
0.01609799080855052
-0.017990605301377714
0.03865020357027237
0.03426282505858145
0.00201917782505582
0.010424624022211294
0.016317295048144234
0.09789939405606923
0.0156633830795059
0.03459957769341126
0.01832164048628004
-0.002399537060711709
0.01257829769692187
-0.028815949210253447
0.03656819018921636
0.05594698959648225
0.0922597227196541
0.02391918128095183
0.04472564133619351
0.02269060404100418
0.021910315169620793
0.005581267875311677
-0.0005709803121468173
0.024686984148102803
0.0023213240184895402
-0.0017141335791812707
0.07082588895665802
-0.017342551145581028
0.07305358689072415
-0.03373284511038667
-0.061597114765077926
0.04496602851046432
-0.10750335878291994
0.07450626331920222
0.010758847004927035
-0.06318782075624771
0.050777318577731226
-0.07982211788982523
0.03559061613467984
0.05071468258659387
-0.060668777227139516
-0.015051498904748143
0.0014266103744744248
-0.004836493024572102
-0.01632724041696817
0.00580296658883966
0.004565554332019335
0.003082489119501088
0.0041238792142466825
0.017991281578236984
-0.04425389486301001
-0.011588963978402997
0.08301470952680587
-0.07399176094862359
-0.0910557982833477
0.03523201459814097
-0.026409625907400147
-0.00975503373925523
0.0023157570203044017
-0.023674276811541387
-0.028381310631088848
-0.031817070542797844
0.03180880519383905
-0.040810405094796956
-0.05106795966742601
0.042628685922741175
0.029575274929022895
-0.029440809778358813
0.026466094733203827
0.09491571008187291
-0.01968726511935631
-0.05082954859866789
-0.01278116177063525
0.04177900935160951
0.04182826536808248
0.024362504474355576
-0.08019171335600572
-0.09188862473124917
-0.0039468680166660774
-0.03349004939514771
-0.06384712455944963
-0.05101219370269971
0.006468844169769081
0.043352325416772815
-0.05539871832076764
-0.030723318709021116
-0.0011942014507521775
-0.07808220986939308
0.007343454631396996
0.034746465925728665
-0.015923958574927007
-0.07574469377422383
0.07440473038527347
0.021800419718108453
0.02347969199576143
-0.030658827110561306
0.0008021280765781628
-0.00030571285746102165
-0.0023523031229234935
0.07912720139504394
0.5636827268040714
0.9732678739258641
0.4610077324036276
0.08005568258318604
0.05321066273555075
-0.004878253634217441
-0.047165135711293195
0.08163953124072464
-0.08347992744853086
-0.10541976572915826
0.10395647503687984
-0.014070880684831153
-0.02445913778519003
0.09295805209411302
0.04870225867930671
0.03967831903522761
0.059920603998102534
-0.05374935371530451
0.02047748020711464
-0.040571802468171395
0.08784585277185962
0.024423186631284316
-0.06745739342824496
0.04117724687928052
-0.017349162784739563
-0.05124996874614203
-0.08013317319731864
-0.1025118703333705
-0.047345565510403476
-0.019859045566141074
0.011151102380332845
0.011185652668383141
-0.035898043771536416
0.02342102283071934
0.031837542733450123
0.0025985679793946
0.005427548196879205
-0.01841242633968441
-0.031017388159666148
-0.00859767298478388
0.017011794854232865
0.03825869547377794
-7.289049747066419e-05
-0.023185421130330296
-0.01574720588221381
-0.00015967824837693478
0.0009323044529922864
0.005778779479779865
0.03427362751681403
-0.002229516755029396
0.043287584343876924
-0.1092900532378198
-0.009819982401884563
0.027873903378863887
-0.0002483921420281126
0.017023945637070777
0.035529133388194904
0.022062177208091123
-0.09949105038371255
0.0427688825522167
-0.07424852674249427
-0.05825119212464167
-0.011532717715777588
-0.05981177360551418
0.03808300685502653
0.030801139391334012
0.09092336694161829
0.009504219793946084
0.0160907784137138
-0.07402766767873531
0.06386663645557532
-0.06358972136802452
0.021881758990584158
-0.041704084632356093
-0.02343480274324616
0.037410107849939554
0.045171429591325474
-0.06878790211196871
-0.08039266036903359
0.05339175441240046
-0.046973540148665414
-0.04424144821102497
0.007313941028339233
-0.028332202392489965
-0.08619256632500463
0.012516872645369416
0.023805237957110363
0.03465746743840999
-0.013279551024526671
0.06469418941796042
-0.011309601805425439
-0.019100831780078733
-0.045701420735958634
0.1068396143809832
-0.011508130136568675
0.0033757167183240734
-0.0719182874713201
-0.013659621818475723
-0.01840249386560806
-0.03852033794450085
-0.0003122259963147992
0.041142711809482
0.03492177921009929
0.00699263555431234
-0.00756300759258263
0.032198569155999904
0.03722597149168036
-0.06993343335224492
0.05499084276177399
-0.07809018329611718
0.011617186290264304
-0.007623384280043041
-0.04540720098144957
0.015373287678485881
0.06595339128403242
0.07664776467472902
0.0996556373721262
0.03853482315592702
-0.024144040734282432
-0.0031274648039906123
-0.027733794724918562
-0.04473290748473096
0.04958669738367898
-0.03420358202246234
-0.030909569058938186
0.0414399858299858
0.050496191054081666
-0.017388727187649597
-0.04242286227298406
-0.0041739906636081075
-0.014903796232793113
0.006457681404832558
0.03545496519909742
0.0077506499715488805
0.05143331073116489
0.009099537550024274
-0.015149982689000363
-0.013847656396618079
-0.015297754016834987
-0.13064620328108645
-0.037867591167876184
-0.0038493587735184396
-0.012894220656310901
-0.057164441388914466
-0.017596325543527042
0.07567493822346248
0.06608108169374481
-0.010409269406732796
0.046461418965200535
-0.06786500656223564
0.009496169888765532
-0.03694507199157381
0.04610696383353337
0.0563456240760294
0.01676772180500752
0.061334379018297136
-0.0330476700886727
-0.07430705764478143
0.04477628387996229
-0.10416215977547925
0.06881645129060812
-0.033459033534837895
0.03612677587952999
-0.08228455580334709
-0.020040328516827174
0.009845678423104937
0.012710018935317284
-0.009444445691648241
-0.053606386999645796
0.06700066492019993
-0.058976974069261716
-0.06906665444264877
-0.0316047111581591
-0.017561546747969625
-0.04691754838981449
-0.018347285576244834
0.037494455936321336
0.03606031541866882
0.04953121278927528
-0.07435210804620501
-0.1363055019784979
-0.020036902373525546
-0.03468432075588298
-0.0933920270631604
-0.009002145847827952
-0.0034931684085337186
0.03462667647831951
0.012338529071060554
-0.03970996447883371
-0.07823779000801784
0.05905179013527698
0.03519853850866628
-0.05193564641382842
0.05744289293429982
-0.025569849433274096
0.006787876860004267
0.003204072772019048
0.014014812164647518
0.06441348539306962
0.007183165839238556
0.01762871130115615
-0.05611458814911757
-0.13344095873631767
0.057727066044444
-0.06989733187532207
0.018286606477923677
0.11985889086693105
-0.05830439041022348
0.13029249254874586
0.04102680743207957
-0.00901166418263643
0.012791353466382627
0.040987596892413214
0.08720106398044947
0.5842644849407703
1.0590761997228684
0.44626980705395575
0.19621010899739247
0.00048597022178061374
0.08729956617293956
0.05463927410352738
0.057529495591932656
0.04834155036516971
0.01204431188717289
-0.04079177168285289
0.08830685016960095
0.024519915191542743
-0.0034010692146288117
0.09253703689141696
0.06273420933827477
0.021235624625716973
0.04262470204810317
0.006136810911917922
-0.07713501626616551
-0.07234773826239511
0.050250206642020484
-0.00970032051797965
0.03291038964549615
0.02308484485480373
-0.002798806183049661
0.04831312944602906
-0.03479814204719336
0.000508915177153284
0.05669594696050693
-0.06699631512703066
-0.057180018065601815
0.008993254130589446
0.022010120635419562
0.10396627073355594
-0.057103834187090675
0.08630377914796325
0.0018201832614319843
-0.018464160850035518
0.018654681513546423
-0.05843221483296145
-0.0488613379528242
-0.03671472428212694
-0.08296430637331598
-0.052865829806991886
0.06245391423235852
-0.014781949787916202
0.05309237454102261
0.050761865328513955
-0.05664011672726528
0.006163366628276159
-0.06400956113758448
-0.020507486429328845
-0.03166937231096141
-0.0505911210529628
-0.04553992846554947
0.08338720853614712
0.1179798054191613
-0.05081071777090426
-0.06719898763832641
0.004528109229576749
-0.0305307483931513
-0.054438815485925655
0.0031200413445546613
-0.0529881431631237
-0.03358075559789709
0.06308027513598097
-0.0005410616834435402
-0.05513923830400863
-0.004647053954290336
0.02741255502331998
-0.08332024031098097
-0.011190610491085185
-0.06295143615314343
-0.010501497426475579
0.02437409340769602
0.006141466717111272
0.03831534858216695
-0.00482242728578339
0.03570426719103162
-0.03252134614113548
0.034621706893375424
-0.027272402083185945
0.09254384033676466
0.05130701457255696
-0.014548402036764725
-0.029500280583001567
0.05477719974279929
0.041934941169589394
-0.10034537017399792
0.07981737263145575
-0.03396257553816017
-0.010095221074912402
0.02262636352350597
-0.07033916635858913
0.12203392572019411
-0.03782296994811338
0.013536771228510264
0.05822201960370963
-0.03608973300543771
0.060873515774434096
-0.03745363123716551
-0.023617859491551606
-0.06925968581599515
-0.025174497556004594
-0.00972166236002251
-0.007426806423393537
-0.08368907269205356
0.050443407989679404
-0.04720605688629911
-0.1273261386218386
0.025427976288446633
0.05409209602875521
-0.06994905064650477
-0.044361040835170326
-0.04177438839988929
0.14410812938836245
-0.012593116009133896
-0.07932132977614677
0.02931439830233007
-0.07760636304175972
-0.0508861149297769
0.10405883059521615
-0.01671947948832733
0.050780354715988275
0.001439351953893228
0.02986659989638086
-0.016275486860138404
0.058166487190355935
0.04364873516177835
0.011394514962333483
-0.08364519628599056
-0.00045175826016675383
0.030511089200895715
0.001997148770673087
0.0670709402355285
0.036037805061849164
-0.07952541505368058
-0.05146889669173913
-0.025879129922733016
0.00011798238133315671
-0.011303365236815917
0.0037810816235286076
0.013587396531453381
-0.009858463082960851
-0.01490315215829469
0.023062268393436128
0.013358864541283834
-0.03657256808701016
0.03720052389509505
0.023448134033159217
-0.006092200837105579
-0.07367144686390516
-0.020612293341224983
0.02190353538331626
0.08229424039055475
-0.07654124299243155
0.06292129089893539
0.04750345103630589
0.03328185695307626
-0.037789046315323836
0.013139363216005588
0.05456202569683949
0.060014955126701346
0.042457520778709
-0.03643769784824737
0.002020293051042985
-0.03809365417440543
-0.027425796383932163
-0.014981495236352955
-0.023826939189062587
0.018640597458495587
0.12117171084944336
0.13434257248580267
0.019527912823843058
0.0024195217508637436
0.03539188456635866
0.013680252460098444
-0.0061636646623758826
-0.05799906729982712
-0.003227579097418497
-0.14586271850290763
-0.065507365902066
0.07277076525716845
0.017511889651772496
-0.040787184990708936
-0.07471449216363765
0.06945233867257293
0.10485612885149652
0.0023106865684720305
-0.00864355974473148
0.12878605684251096
0.04003917782949681
0.04283054364309528
-0.08348777703298112
-0.08756376714115376
0.09489521794072973
-0.005663231924015685
0.042799672012333256
-0.005221249995195779
0.008184566147249122
0.04828424011034886
0.03205881891454683
0.09191649766489525
-0.024715070011404813
-0.07962786501688968
-0.06895110634308738
0.09600207696640928
0.0498959818790976
-0.038174115839708846
-0.006442639741921875
0.06818998558490201
0.04609134212924945
0.5615393268274448
1.1409172017512619
0.5282480079978891
0.1342884466373302
-0.021575451923915495
0.022031709707829316
-0.11900592659116274
-0.025711305263172377
0.00800185380272004
-0.038352992715397494
-0.04459237686913495
-0.030046797806307313
-0.037043998879114234
0.08142030705195565
-0.03398471780373204
0.044229697458625865
0.04989860957166844
-0.12400016301885393
-0.000856692480564792
0.04647338942272829
-0.07665079720244895
0.0012914310223781497
-0.033123820046416994
-0.0025279591154803776
0.015233433056749339
-0.038118002164688095
-0.021504300957494848
0.1175697388417653
0.05542699347302998
0.008013927207195272
-0.034504693749991495
0.011595259292385595
-0.0008967943811395966
0.045246298985281465
-0.05158460592572095
0.005556293846532797
-0.058494225990066484
-0.02028434078366543
-0.037746021274844256
0.034916597733113605
0.06255211081683888
-0.09353003148233223
0.12389150089173528
0.06210901419960788
0.07256034239781138
0.02792302345125344
-0.023826377422161732
0.056660177997420985
0.039843586201619416
0.008642673122795213
0.050548920922746245
0.020698911839130085
-0.020553653493712055
-0.08379385869788557
-0.000503394886476236
-0.0735869218479263
0.049473161754115536
0.016565719427114035
-0.1149595112543205
0.07694140450563614
-0.05451656897566281
-0.002801124614944049
0.038263520352794955
-0.14399384338072996
0.0422989147506912
-0.019756320770784635
-0.025206631871301757
0.03518148287094505
0.05367116095936623
-0.04003289609952342
0.03672752038177448
0.05320958068023638
0.06294298374086305
0.058094405759123814
-0.043224639689756206
0.05042133477836752
-0.011256158500252444
-0.02637656237557874
-0.04721853856173024
0.08645958601838372
-0.06080840379439706
-0.09332470204488907
0.04555253307314904
0.05627407739309558
0.047941017235707206
-0.02617444087739314
-0.025328889520370785
0.037364697716971706
-0.03490036676076826
-0.07982431916852922
0.14130705190400636
-0.054590846585539414
-0.0036480983343158053
0.00045836828177895007
0.016884526346781906
0.01241924987186419
-0.015209757375034362
-0.05310478437135574
0.04589341282769463
-0.002576643222845358
0.021269879403832403
0.04574721721662177
0.04384259385060468
-0.022377623881798567
0.021416050690012473
-0.08780905631575639
-0.008709491634499215
0.047033393598071085
0.01670656100758742
-0.023264260414268694
-0.055955756492449715
0.052246449374197236
0.009372703205052813
-0.03611106381008069
0.015884991447618537
-0.019292529802406474
0.10219353248299351
0.01661610015283371
0.054144133712548864
0.0777385578638982
-0.03857371598813574
0.025289740139614703
0.031023874439730134
0.017736906848305797
0.03221839415604485
-0.00013503902873307142
-0.030909867463897314
0.03141717903786945
0.03812116616012473
-0.045301304408927975
0.004182022871391751
0.08895050262642465
-0.051073610983839904
-0.020095589171610785
-0.004202026806648356
0.014698788323804897
0.005799007225966695
-0.00686380032356737
0.053127901568952744
-0.046743456664058214
-0.06708848310058506
0.012419706505995566
0.07623703709141914
0.08493345222407261
-0.07149538655988825
0.039815426410350845
-0.058337433050487476
-0.08799289176891216
-0.04308778249369892
0.05625221069546449
0.11983041329011837
0.03614410088652711
-0.007730087928291187
-0.02239880552922463
-0.03114578861437914
-0.010581322996485945
-0.064986227725674
0.006280854672750977
0.06797471283198656
-0.026095483608508652
-0.03316268189488546
-0.008025392833445163
0.0744341636535157
0.028041585208685674
0.05031643941117658
-0.04069071305872449
-0.0037745927892732945
-0.05274083049078553
-0.09104289440003122
-0.004604551633222787
0.028760670957232445
-0.05006579783375732
-0.009700814301527427
0.05503666100598294
-0.03267078523786817
-0.019100732491922703
-0.09565089842499581
-0.026555901634444046
-0.03757506665461076
0.06349155987062707
-0.04378758824440258
0.021430897127734477
0.05360287780282427
-0.0019069290822740445
0.0512311625704794
0.03297677860300611
0.10098585325924894
0.03345479033050351
-0.00016326773822167968
-0.005275117680633439
0.03005122477082649
-0.05488147300008084
0.016654312677636056
0.04424018540902703
-0.09711148188708423
0.044855729631439994
-0.060810349983065816
0.045057415300939416
-0.0034411824277958123
-0.03548391976788774
0.05417739365824096
0.027759863492877818
0.14634154986130588
0.49893175690219627
0.9988572613089974
0.44384025649119013
0.03722099884133871
-0.017886781459850905
0.005176755568818223
0.007801765683188694
0.02497852967829975
0.022505454841942628
0.002601224060350821
0.001155909570871256
0.002431706946228529
-0.0763556532019313
-0.01711271233850261
-0.005432127499869616
0.016874679756673425
-0.05983546843922575
-0.0687624653019922
0.04044584274660307
-0.029099067393026198
-0.044410317634280855
-0.042805219577625814
0.07247919486673071
-0.012080287321471006
-0.058261034778778475
-0.047040448037210886
-0.06799866065678317
-0.009201506249620342
-0.056110191373732056
0.012054346302574868
0.04532748960155489
0.018203078387530134
0.022782708475085487
-0.08807393036767842
-0.023495484256772853
-0.022843704542379384
0.009278432734957652
-0.07964599747441231
-0.016413079218287246
-0.011124835864959331
-0.0635182791070311
-0.053660450434154294
0.08670606318104071
0.04831425232921602
0.046589968804121806
-0.03810841759321874
0.11032359304607085
0.08902761564929228
-0.00514831787370846
0.01656920256354105
-0.016049852133940893
0.0325932974614571
-0.03062895373379586
0.011046591148678744
-0.009483249106636765
-0.06650032953191846
0.008237448374889026
-0.039537946152857384
-0.0853228462874639
0.016770521473384654
0.00041031393434694014
-0.04370020290245113
-0.07138898828685693
-0.03969929606694584
-0.06058476714581184
-0.03926209641859547
0.0025567345258033975
0.03781271572815358
-0.037975183663572665
-0.023791813345155923
0.02366580892807034
-0.04472987085993407
0.00032557818457736753
0.03456687549848416
-0.05316631947072307
0.04405891265960544
0.06533049348369213
0.039710688199182616
0.010448735637966094
-0.02423134474149642
0.028948207888953588
-0.02497050332302426
0.02402069667618044
-0.1035060941071659
-0.05135000555500338
0.015959170299555427
-0.12345999045071297
0.022816086884750814
0.0035153373172617146
0.03401968795137123
0.030759547182023506
-0.016470743009346558
-0.06212055552164095
0.06712814632477003
0.10533810118212766
0.03875581687710825
0.06859717031750413
-0.01645550742675415
0.023358393316775406
0.05870891948321741
-0.016934672913697445
0.014040276563603944
-0.040630088325653846
0.03622149745406205
0.046988348597864875
0.07532657184830965
0.01684215581788212
0.02367809018311028
-0.10469737622861425
0.08725017036330535
0.018915359119931467
-0.06624874356093732
-0.020424147054766733
0.02499791195640555
0.078293485011062
0.06688127387211787
0.030912512723557436
0.028460487969006944
-0.010469963045766141
0.0024506700469895163
0.025058787129019766
-0.06519385282581037
-0.07982504612629565
-0.12587118919138116
-0.017618326590436814
0.036876921229527355
-0.05115839205912394
0.021697890328297664
0.11166967071542169
-0.027930565048471814
-0.05558498405938096
0.04458765560471331
0.03330648079432666
0.0238184392803271
0.034187236584636314
-0.040642889361289423
-0.007966451449838572
-0.06624861880532133
0.06344864411808412
-0.003654304360804535
-0.019998719888807307
-0.03142890972212866
0.07048051153171037
-0.12153247308858298
0.04971538877624426
0.02873599064692969
-0.01158510970726789
-0.07054846269476567
0.02002340923601957
0.02420828635072679
-0.03179772014531576
0.04653142005909905
0.019013211342867396
0.015412350263713459
-0.06321353741954348
-0.09948274755410132
-0.04039114170451242
-0.0918955542022111
0.08936276961580486
0.026757776224512666
0.10614466047962645
0.01696916195208496
0.05594656908420936
0.045829710686086156
-0.09551848543311553
0.013238429329827975
-0.07567158421592772
-0.043383044553411326
0.016283672852570426
-0.032310635025774435
-0.005589516021805151
-0.018713474259539384
0.03453185190632426
-0.0665937029344568
-0.004438798519561321
0.03678184015751039
0.05107437753554927
0.00649135386723666
-0.0743928768540898
-0.034938723768524846
-0.02832339105005894
-0.005247160125535996
0.0362703533947967
0.09114921030550811
-0.02315124760220069
-0.03887811953664174
0.03787090652356706
0.04779315410501661
0.017005225283520116
0.03513384370296351
0.01444504036482843
0.07497359251175449
-0.009533769122662308
0.022804590554494283
-0.048424794120228105
-0.0017387375791246746
-0.060848014608063786
-0.0009327254121153635
-0.001839644902081911
0.004940135045924887
-0.08610794253197332
0.022572656332333272
-0.01555922682083947
-0.019980550144640043
-0.007374654262465915
-0.03435980532593291
-0.12762931699787491
0.0016931757050762692
-0.07248052323414061
0.04081417771745969
0.03449579647385508
0.010037494091249778
-0.0026264022783345584
0.020441873930379592
0.07530061663858895
0.5218907912800932
0.9549025218308427
0.6123575098173607
0.15331831625923753
0.0835062678602472
0.14144958508179858
-0.08001369494572377
0.12254081357898186
0.023611063404767162
0.012711336095092061
-0.023217995733986176
-0.07740523354930189
-0.029854183343984916
0.139330781522638
-0.008147924125373575
0.029464384845361086
0.0051247398887667005
0.006887494158490565
-0.050749322017275604
0.07602761125928492
-0.041197267529687
-0.06386433726237266
0.006631555436860304
-0.04090150734399631
0.057008326603885974
0.009052442065768043
-0.009500307550396929
-0.06709037518187426
-0.0399429988559574
0.014693136319691796
0.017560368894617262
-0.10099411232864726
-0.058654019568325055
-0.04839755678489409
0.04629097089034384
0.08735585812644085
-0.011792597261715675
-0.011687974894395976
0.03820092373107903
0.05313188222916507
0.0751964475026916
0.010387182792575738
0.140147283585044
0.045524985133445675
-0.018506694993571837
-0.04215058117118659
0.01895990701574385
-0.034392840471471876
-0.0014699664603890392
0.04485859645664832
0.13896548310077533
-0.037230744670142334
0.12214490091932069
-0.02280441299404644
0.03389234031421153
-0.00122911456450011
-0.0023938585768704286
0.03676082631955165
0.004715346575344997
-0.030031470215113883
0.052573141169777654
-0.0407490852901166
0.03577063765914776
-0.008895911817682475
0.021287336745033372
0.012753711586568704
-0.09899443188572948
-0.06984008982274545
-0.025518566445985588
-0.06552328542740922
0.03557830755082252
0.0451220886190385
-0.014434349686773987
0.007710638053772686
-0.07497654681842085
0.07259835072093872
0.008354245332787292
-0.017331988418074113
-0.02654744836691621
0.01680462895913509
0.012208787787960468
-0.006584618421796362
-0.05561349941589536
0.003959824276643951
-0.060022508808633405
-0.01456544428500027
-0.0633308722942846
-0.006367094025725333
-0.06220907244891871
-0.04011989949474194
0.0414730839322622
0.02484635964914529
0.03973791072701075
0.06656924388085525
-0.028804229515862145
-0.0026575507178027598
-0.02892274435074689
-0.0525770665222178
-0.03834815120330861
0.007506762406866795
0.0549059758710163
-0.08192681381173694
-0.04082666010454868
0.069827244335588
0.1212414596646037
0.053046919671024484
-0.0048558759942798025
-0.07125480656341757
0.048355869617187006
0.05029877799384681
0.00047906469929390053
0.007808463782212265
0.04523135238382822
0.02684533641338643
0.04982776822358574
-0.021904682677578988
-0.07290015928429931
-0.028601466130875608
-0.08164023817659415
-0.004320250900675038
-0.04456669228783473
-0.08080451723581897
0.008503387840007438
0.06697019438776289
0.043152441474903824
0.16131621617133948
-0.04517791507565222
-0.015060708336267584
-0.03277342028281612
-0.018521131180155685
0.06695613795650197
0.06646134138761248
0.09665391192921034
0.012026616608547898
0.037806683922455474
0.07494805273619698
-0.07882249779206216
0.03736295648547297
0.04011156674085922
-0.019775309759004253
-0.08508684776422291
-0.02662715355068796
0.06459211133420206
-0.016964326507261863
-0.04427821758908883
-0.07592565006295698
-0.056615170067852286
-0.02775873409170254
-0.024302977538988656
0.00037135404450896916
-0.08638334346720049
0.005903701147541116
-0.07722448685740525
-0.010579410540405627
-0.04409279229518402
0.06865344126558807
0.14566471949936372
0.006103938651712774
0.06982235355922449
0.0026256454424420923
-0.022585972627711587
-0.08015188688848644
0.1486257136422604
0.05558699162073279
-0.028547564075359324
0.0012410072357845244
0.048902732805823065
0.055194578252567045
0.0178046112685117
-0.002182365998105914
-0.020351459015106325
0.03080306553319656
-0.0135261934776713
-0.008601126165606909
-0.036704110267243115
0.07052541476834605
-0.07445088692225174
0.11450427800709538
-0.021547347983072503
-0.03963931011673835
0.04841970989890395
-0.023504413806684207
-0.01393284931931353
-0.02461136123741935
-0.02728213654713726
-0.07067333144526014
0.02953525643570349
0.030460717560058567
-0.049599103214808066
0.02664156245849273
-0.03457925333668177
-0.015302458571453546
0.024307594543335864
0.03885034346498187
0.09570227066851929
0.5129728840180376
0.9144779805514596
0.5058213454300998
0.013540398817034949
-0.12653623882441162
-0.0025691310179031257
-0.008963512267009971
0.021048523446299705
-0.01971960715901848
-0.04540366408454117
0.00973416906503907
-0.03703815022666887
0.08420496974880959
0.018306629134612364
-0.028215544246737237
0.016976246044806843
0.007803345360687002
-0.004631208385906476
-0.009583770422069869
0.02098345616631922
-0.00890695439732722
0.04964148120409122
-0.047122925650434654
-0.08037442530497628
-0.045022343675598965
0.028606855851254977
0.024244779462230814
-0.030992403047080203
0.06695471163617153
-0.03732278865100571
-0.009566608494757689
-0.1084247984297367
-0.030543804647048145
-0.0030759362186495824
0.0852687300590925
0.0077800723340376065
0.008548634500689134
0.05727956852892631
-0.04906826754145814
-0.04243642363505579
0.051936931991197116
0.026980790031279442
-0.021616290408508536
-0.003314161827210289
0.07794446001194008
0.03953478220913864
0.1199069336812598
-0.04140141069033459
0.05914505958715149
-0.04686475968387892
0.020377917779518792
-0.06108546069387993
-0.011249663039399983
0.02427363934415237
0.009753273457675807
0.09715491148748778
-0.013918157374265737
-0.03493269266581122
0.029825370180559696
-0.025426723608976482
-0.002298766434779945
-0.04442362299319656
0.032675027962517735
0.0020544634854713197
-0.04695769429267327
-0.03424756290530712
0.03326365957226293
-0.017917143187417255
0.12165885390305847
0.04962890226229831
-0.020166258954161326
-0.03313823953470164
-0.02586631807126627
0.014008198856312288
-0.010536716153271614
-0.07041886662482429
0.04381787926441716
-0.002940218112407285
0.09902731816477942
0.08586470570195157
0.04458037167631684
-0.05369834648616272
0.09476875172656857
-0.08918738229961003
0.08394741529636623
0.08467099148669328
-0.021326508338725805
0.012946796857720426
0.06371854193924954
-0.03050846606586173
0.025918387921404745
0.13932808852161452
-0.022558522399281095
-0.037390218613306145
0.09591454596019755
-0.02001782671092558
0.014989489168679624
-0.04447936412990133
0.09535915315978949
0.10225407285823024
-0.022015882221420133
-0.017078903402622695
-0.0038640480445566814
0.06211771665142916
-0.005761982261841707
-0.020839752762767214
-0.022880158639704547
-0.06617854793527621
0.03970262359042742
0.07150977683479368
-0.07701680353648327
0.060909874727506114
0.008437805012884428
0.07063282567152389
0.03683819374819098
-0.024710289331505306
0.058372314817991336
-0.017431388925120573
-0.011493145421045951
0.05487537954301004
-0.045061395406318594
-0.03842388443027353
0.09764348473504911
0.04123955595109114
-0.020923729040672284
0.06797505905075102
0.020040650000639246
-0.009943859523659932
0.011022562603160355
0.00721202384331873
-0.0021834073349997845
-0.009047058389448179
-0.023236794021705677
0.04954364050523046
0.05842447145239295
0.0784700289726415
0.0006934798161356726
-0.049386999650844414
-0.0246199560294494
0.043243277695341385
-0.1228483221488391
0.0017224928143729245
0.01687721481537356
0.0037015079437722658
-0.03184343969537525
-0.05485478703483635
-0.0009728189554211958
0.029594796563888883
-0.011699174738900475
-0.020353041996126864
-0.0027660817305469655
-0.016637177799865448
-0.0491556155147451
0.0229851690929482
0.004938328873765177
-0.002347643770202919
-0.086611676517425
0.06057918022707989
-0.021508371503863446
0.07216224402394043
0.0652745175507555
-0.025206085427545002
-0.00037045383353927257
0.0370653076797547
-0.028707168223500387
-0.011576515745878905
0.04619376656333433
-0.09387707477559804
-0.028862185827782313
0.06874993820284457
-0.09141648195723481
-0.020350697569849863
0.009080429521267279
0.03451395179569901
0.025624491148956943
0.004115781659552536
-0.009163591878492547
-0.02898558269948643
0.010431600908624139
0.04148859153900723
-0.01113314304203953
-0.08519766967540066
0.035267199971402936
-0.006377762970717654
-0.09202898985338534
-0.11782403088593561
0.0744695229995334
0.08272346416136155
-0.020312912106820753
0.004090335111605934
-0.08934343789481097
-0.005385765351467494
0.00772120560051274
-0.03787894071623759
-0.019626613888022084
0.0229063666348781
-0.013540377864345041
-0.02037938012207871
0.030155848436167632
0.01659622566831066
-0.01971588522215828
0.013627089156882237
0.07618103275756169
-0.0698031237956192
0.06602926556225473
0.03248068747069024
0.05431231921144012
0.035316935318686675
-0.024373809684334603
0.10405752812013659
0.4932613391013263
0.9694581437122993
0.5211325116695842
0.12182965724034098
-0.06160718452023916
-0.059065643790034594
0.07351012509948578
-0.033075910038337625
0.021768368526770845
-0.08309818768415983
-0.06461989623522536
0.08396768171063389
-0.11503869976063585
0.01039186185743129
-0.026546738747566564
0.027834431145987354
-0.03593664343420562
-0.01935946019805496
0.014622454002130325
0.018428826387937036
0.036417761415031794
0.0720800524686999
-0.03604707157331515
0.016378996376404737
0.0678849868644684
-0.07029687560242
-0.05191692624259249
0.003421261288431537
-0.08383530641014858
0.02131438223850286
0.12923763966883645
-0.06597609727125113
0.06396643939119262
-0.06496316728788556
0.006191968799591208
0.0624905684002403
0.0372264106538947
-0.007614323822866834
0.04067855983056817
0.08660504151162458
-0.055600810346594046
0.0002361203363024598
0.03163018796384533
-0.06147606049087198
0.03123273457312907
-0.014944374649725088
-0.049546907407639625
0.01989138964418523
0.04646505731035172
0.04568602330447975
0.04166660705942671
0.004880458800592756
-0.07627107339263445
-0.019009862382813887
0.08824922256662765
0.019789338578014674
0.0645910590785331
0.07365701187450259
0.09820882934046594
0.07277329963723887
0.05678994074445365
-0.03617516343624208
-0.10416495534930728
-0.025659594707382785
0.005380685392586397
-0.048632306369829494
0.037501177308090494
-0.048621451850727714
-0.011567118217047725
0.038340561970550524
-0.047188805715475284
-0.009762536778688836
-0.10166472355234571
-0.008347933509638921
-0.0005931196859276685
-0.020797518597371636
-0.04734186298433955
0.005971701264298114
-0.04378794522442288
-0.03748654505231513
0.09153935880361654
0.030121351691360678
-0.018052398678532974
0.03744331550731813
-0.059428697687912736
0.053922722087300104
-0.032125985684203634
0.07362476585179484
-0.07969734491357483
0.036668051005215196
-0.0011476444733545142
-0.08749099996788084
0.056411164754119815
0.04621567421139142
0.009150726833628362
-0.0781188476179053
-0.08111583695673341
-0.03655535812213438
-0.059009692243191116
0.03702807198515081
-0.026014236777867367
0.04914708948752466
0.02728168424470566
-0.05120347895199892
-0.08433226663134305
0.09546767645510007
0.09477442837184624
0.03784486360643155
0.04337887130259465
0.0726608735985377
-0.024557598610646963
0.018158057661703895
-0.007061070132123282
-0.027623759520706438
-0.046657890443057175
-0.054722245057826094
-0.07409516743541097
-0.014893265637227171
0.052043939083624216
0.026378704998727527
0.12166248536128035
0.0038298373305413035
0.008280261470242585
-0.015697140397915855
-0.032309724375940325
-0.006702425645405472
-0.05377646521844875
-0.06703041648069294
0.008457469775651708
-0.026575124728743217
0.03986373108417416
-0.07369933401247586
0.015938341049807465
-0.00880977898007469
0.02014223816323594
0.0028683405047671244
0.010417821752024953
-0.02266315568576439
-0.01407856699266451
0.01778867873850247
-0.026147192737278908
0.027599720546078843
-0.04706370946850125
0.03477665830230898
0.05412488439727652
0.022571627569350404
-0.02059740296812369
0.04401887704135637
0.0068875504247621865
0.06275370744179423
-0.03032463927072674
0.004571449519026204
0.04392448148089971
-0.008500548740151126
-0.044068171064162116
0.0023873050021319384
0.046191764775642984
-0.03616834379169102
0.013501244581481714
-0.08137563496790232
-0.10602928889717732
0.009608814510529444
-0.0625175332564536
-0.029792388221342093
-0.039362166360205314
0.0163512398314033
-0.033305120694324813
-0.10302982003067095
-0.03540097918188181
0.04487304674725523
0.025474322710992148
-0.012473109517163829
0.00313768718384116
0.02684823351067396
-0.06344089262435589
-0.002410128445975535
0.0628810890471224
0.05028048366167734
0.03722554039677988
0.056591866941828634
0.003494612728855071
-0.0891030040291161
0.0378119096053375
-0.02542030606394769
0.07081007860672783
0.0202855032714628
0.042117064656625375
-0.04599728285516976
-0.010258794966075988
0.05272974565131773
0.053961859679472306
0.08186649441553837
0.04332568720675413
0.0013264526554897338
-0.03924976882523806
-0.0341064314387813
0.019683162501357373
-0.052689613889900344
0.009866503078737064
0.07847662577949449
-0.05887605859654004
0.0061769038507886575
-0.08956345510888478
0.018028369397311297
0.06881607266992637
-0.12159685137324744
0.023796756711331274
-0.023790301373161207
0.09494281020473763
0.5051436898599087
0.9259714908689944
0.4771990557817287
0.09519767793885994
0.021726435326444398
0.017169181537536014
0.012422379897605864
0.007232848096247563
-0.017849716676680106
-0.010189978811472836
-0.03978357176537223
0.009056855602013037
-0.018385576834701996
-0.012541625509198635
0.0715610827475001
-0.11414182737814615
-0.056776044319719644
-0.028449009773288833
-0.02027321841724189
0.03792176607537891
-0.09458699672000587
-0.02774868778741951
-0.10118764333620907
0.007072758729877374
-0.0648649753236029
-0.029327954234376785
0.05602095210463268
0.023463407805523154
-0.056672890094238995
0.013127949517171167
0.033938778340046445
-0.08459820345691238
0.03581297905024918
-0.020921513835820273
-0.03278055375307256
-0.053091156447823855
0.024679764183652492
0.013146993159598705
-0.011200297998225037
0.10237714450847493
0.014028663976191647
0.10428035128140994
0.11785276333347978
0.12466066413192052
-0.01846971486600129
-0.020861820656700468
-0.0024042895558042225
0.04734795757152822
0.01746332684311725
-0.12512062500008955
-0.002738233389681478
0.019869071110597075
0.08389657781553916
0.01340125967569774
-0.024580548403994377
-0.06709380866971902
-0.05140218130118608
0.1080332561738961
0.017975370725695407
0.03754712454832539
0.05099179775609526
0.021748421269009492
-0.12111066566690405
-0.08591909274939241
-0.1326576511435604
0.04918488958067642
0.004882488450378029
-0.05466083271791941
-0.0469132338641263
-0.009319748416462013
0.05216137882338378
-0.031233610098107392
-0.01211046723760191
-0.0549649168841696
-0.00814187504695916
-0.04220810384912929
0.05372539659263764
-0.01698866755766619
-0.058385166495414455
-0.03423300267639703
-0.0407929891430711
-0.06227432538133018
0.022348058316340583
-0.05037458216565565
0.07178926313478622
-0.0051911311744567215
0.011873710608189633
-0.0889281707143586
-0.006078456419802999
0.04839256505316706
0.0076516590619593655
-0.06654211725942698
-0.04539889220210094
-0.07644543447386015
-0.07739327718287459
0.06121369375469796
0.022174992710191032
-0.05415416523833001
0.012271445959310956
-0.040912242385415555
-0.09648855721685752
-0.07448584431998131
0.016969621330855778
-0.02061896440789281
-0.001144468952343813
-0.006781586969953553
-0.06473226335206843
0.092878129935908
-0.04870314073497404
-0.0029072082759226073
0.09748132093854005
-0.05677032190034727
0.06227937785354858
0.0037559431021234125
0.0067377675063284865
0.025424402683682013
-0.003812448381153571
-0.07681576452908223
0.009015797104424078
0.04930804997643928
0.003966036956736973
0.03724628840827976
0.05051893449360687
-0.06832190630640843
-0.02708544692264266
0.07408895562003359
-0.08045200230623308
0.12252336031990141
0.05254628981790663
-0.00743779584924765
-0.05209497795513821
-0.0034240376102645355
0.09146166592913907
-0.050652452333808766
0.055880539587865236
0.010309571227872238
-0.07566411857815389
-0.016785987390231013
-0.013922709494343223
-0.015153635418854054
-0.0358417938600161
0.04807354282989321
0.00037375388663228793
0.0914899617695534
0.025779092488807415
-0.021949959089000923
-0.02426833731184651
-0.017214409468028543
-0.011566702823339117
0.0006090386288988176
0.008914845532982487
0.008206912339438288
0.0369432412114689
0.0534121028498745
0.022179291681610425
0.053299107906531265
0.036402126161114205
-0.03869344659455865
-0.004472762867374043
-0.003529859694732001
-0.011648066743053973
-0.07190614970291816
0.0030628583962651694
0.0887809499780941
-0.01064625495993484
0.017164936090305047
-0.03239160258510977
-0.023724937935825696
-0.0838951835638188
0.07341076736094114
0.09360835364596776
-0.016853005467169495
0.08991562694612677
-0.07451269257823849
0.003027703578946416
0.04565885182162182
0.001712493071993241
0.1500470275327686
-0.011742512005852683
0.07617459095026163
-0.07018152316107311
-0.05428061030002751
0.046252021550877015
0.04682177395599484
-0.02463944639905737
0.03546145592955389
-0.013135214092901562
-0.012632620765620682
-0.0328343853656303
-0.04448088624817631
-0.00800884120379229
0.030095539782502973
0.022465839318186364
0.009061357402049887
-0.015927972554842042
-0.04165279926326939
-0.07066662565228574
-0.0467283354746361
0.0223445891776822
0.023497757289429357
0.06634623252931153
0.029865992836424632
-0.021288544423163424
-0.028274731369309233
-0.05475549425650918
0.06414999341201504
0.01768349782429748
0.034517942692233315
0.034530142573271194
-0.033014274124295244
0.06863498302168211
0.5601695987458774
0.9653768565607257
0.5136609436896582
0.08429819468996584
0.04654516236457638
-0.0417762604838634
0.038357217331518305
0.02277786221186312
0.09717040288995674
-0.004885890015313501
-0.02903143621592373
0.028135940128918565
0.02164986172298876
0.004469209951217915
0.005203802312678959
-0.0033813472133707883
-0.005750269075660938
-0.04410132219733335
-0.046396446254805795
0.020925711863960025
-0.03152791586902364
0.08342684212239719
0.025483641077021852
0.004458230148214336
-0.07273395305036782
-0.04969466795041266
0.025135954431335233
0.01378951860341163
0.09963494016354321
0.005276549257689467
-0.0351630881194089
-0.03780044020092733
0.039351048985688766
-0.03477776610207759
0.07809462570399527
0.055049600652343544
0.0052837582441238986
-0.018107518308692835
-0.016444668649907936
0.03044225351412795
0.006966582184200797
-0.003042154798221839
-0.028511128073758548
-0.01947168958503849
-0.002615400597151223
0.07430989986695083
0.08810072885911933
-0.05633307766743465
-0.08523453167726794
-0.006030726594018611
-0.08124251154641635
-0.0268740908961854
-0.024107973524011103
-0.014658674677184772
-0.03499525524409183
0.09745530050809739
0.025206566960385108
0.005545870964325725
0.07573253197166513
-0.03504632439867436
0.02596078845882286
-0.007724193124318013
-0.031105300459303254
0.012610564798337026
-0.0073302112777762565
-0.018270338280033754
-0.06377445425021265
-0.012151310197784721
-0.0029696474758672867
0.022084866581633587
0.07745835515885877
0.10516030036139357
0.008291350876548946
0.053033693330099475
-0.04544412782187099
-0.048169638257874264
-0.009000585463143905
-0.13390183424582183
-0.06158751464916473
0.025048160326287424
0.0718137516909814
0.045160217335009356
-0.02400043688579296
-0.010958002156257553
-0.08504608843222707
0.027442377242208306
-0.04370436618665327
-0.002969175207880569
-0.029384067367627106
0.03925066239446298
-0.0008743204936466567
0.048018006495159804
0.0032983463586362563
-0.08871906387268313
0.04746628555552618
0.04961310710028702
-0.022115223537892397
-0.10231235185370216
-0.02300498854248946
-0.0128365565010309
0.032220545227967023
0.08526015524322778
0.02342970031849726
0.07484540451098264
-0.0036110888214009873
-0.11883133557884527
-0.06469547534916965
0.006247511308096658
-0.04472525684073766
0.08993857298796781
-0.04096814559267423
0.011860002564004815
-0.03565826712824371
-0.034817450406929434
-0.005276453346527857
-0.023405518337948253
0.00807352278014621
-0.016726922501004642
0.08689740919089109
-0.0414356862335686
0.021066665886194144
0.11416087073001467
0.02099694042157895
0.020431856547391207
-0.04773232670540237
-0.04624715768716028
0.003795807627564637
-0.0365573556520275
-0.07631276983480988
0.009122368619383222
0.05113163963473677
0.08362841461540987
-0.004256818881961943
-0.001031377586772818
-0.08685599134154139
0.07208173998052878
0.025563513839946997
-0.012601731078247
-0.012650693768035648
0.03769030553733085
0.06032268355309276
-0.012535435444860766
-0.0038600041937864715
-0.020248131741339236
-0.06874060337568973
-0.01007791006994994
0.024486153536498537
0.029014925180497544
0.03540380376011026
0.08487149662948688
-0.0276453078244941
0.05155667191660819
-0.09915155929657538
-0.0824098089936161
-0.005070072434282066
-0.02271786171284615
-0.0046089213520573635
0.07279842260743473
-0.0401289427286471
-0.023976629325883517
0.04712221936735837
-0.034011715496149425
0.05116314946075789
0.08089994689196502
-0.02904368235017108
0.06342608296851855
0.0740898031159212
-0.012413201114665064
-0.018265743632825564
-0.012557853371480727
-0.020570573218993513
0.0048252971990722085
-0.008186981929114342
-0.09523303789559352
-0.0015312630342800375
-0.007100807522924988
-0.0001282508435739527
0.11619115870567354
-0.03133860323867382
0.0050101780375842965
-0.05615927106571983
0.11380793336646705
-0.009153248311878815
-0.01780584211942514
0.035719983265204217
-0.03292104296565166
0.003365524843244254
-0.0032562580366017678
0.057093177908829076
0.003751118462741204
-0.06265856907820946
0.008520867358487255
0.113721320002688
0.05191943769217572
-0.02115059844531158
-0.012202825202811289
0.02095353772906886
-0.06974441542034089
0.04367547895596941
-0.0004005808957424112
-0.09092943245974175
-0.03868599318649769
-0.010669639139866488
-0.06943381708487151
-0.003496961986239784
0.1191074413092311
0.505325082766568
0.9953190876960928
0.500085479632363
0.02732294768484507
0.05129988958455585
0.0406918515025576
-0.03515428355771669
0.06723325181893666
-0.017798423026611228
-0.005183319195222098
-0.011071786947822071
0.008501268918254666
0.014574267079135615
-0.038875793426638904
0.015524779534214623
0.00036507194591971415
0.05400058143894368
0.016191297745550986
-0.014545783442760593
0.019329351453822967
-0.007183641294233218
0.09936208025095508
-0.12287317101981537
-0.0703365901209249
0.03962663062347593
0.0041848861196482935
0.036698911149055775
-0.037853934134288836
-0.004665107295232221
-0.03580977878096088
0.02423844209901772
-0.04385598501443057
0.06166325230193516
-0.02151340083287149
0.02824992839458031
-0.01743150654473986
-0.0016534468631439802
-0.05784622362369133
0.008920211378588712
-0.07121535311685721
0.034188753702774376
-0.05729011893590781
-0.05406810396057782
-0.09610527119665799
0.02491270554120668
0.09591295041323557
-0.07616801299906065
-0.00302128920435696
-0.044602226214598695
-0.0019422075370103976
0.0042501415143935805
-0.03635605916726103
0.036941466370187935
-0.08608814864300854
0.018148540586110932
0.034408159393368436
0.032819865347113245
0.05534093154451219
-0.08152180759227029
0.05124222847955954
-0.019895969345872445
0.03451017153212704
-0.09997454005481417
0.018886671217806
0.05666110699144222
0.0333982545620614
-0.011589737387410426
0.09767914587978319
-0.06961511244782408
0.03473659070068968
0.028505784373852545
0.012459191936912771
-0.011730003176283456
-0.08810857271859088
-0.01942640980140382
-0.02527100746221498
0.02692857870025125
0.007358141538335559
-0.02445827740499744
-0.002494436855128041
0.0025916644800505514
0.03740419969425834
-0.021972205922224465
-0.08928241396596559
-0.034929822195411374
0.02602347112423957
0.03234434919834022
0.04913825030611373
-0.035509116820399825
0.01268726629129783
-0.010324524677960092
-0.009953008099153065
-0.02813046275015559
-0.01420764925839852
-0.02584743196714421
0.02030055972191042
-0.004169997804542035
-0.056075210847240625
-0.025081636511678038
-0.005893327420575262
0.017346957126047304
-0.03936275921867927
0.0983365155983931
-0.0011286248470649708
-0.0426354894522342
-0.013596759945660808
-0.019002814803400804
-0.008657008789593251
0.11395691085222673
-0.011658251847073043
0.024786341902258615
-0.0022726484403797235
-0.05243770163280838
0.05221477685985754
-0.09010582024372354
0.01427115767441119
0.0018218245290780536
-0.01563261097409904
0.07387665225123217
-0.09981502678813246
0.016064956950479437
-0.027615550863082067
-0.03592398746382664
-0.03894066949250143
-0.003613319928767962
0.02661651242128123
-0.080639022664261
0.07867033214172932
0.0141332658172036
0.004284117178147194
-0.04268732725673606
-0.03616903387850584
-0.029544281029532646
-0.0545138742218092
0.07022782520709552
-0.02735517229930633
-0.04473075260879696
0.04475785831654547
-0.13496865962362006
-0.02456097753712322
-0.07146707404656512
0.03885666511229815
0.03191770790867029
-0.031608214826371266
-0.02331320348831176
-0.037855092327247375
0.02047389249395985
0.008262646380279503
-0.010857538062759908
-0.05153306196180955
0.04490720350999381
0.037835912732829866
0.03176500443425942
0.03425047526478425
0.003171113436191587
-0.003933096579157252
0.02844085553388442
0.017803050803415394
-0.0438738986195607
-0.01613887688649884
0.005484730462092722
0.07204451217965595
-0.06670394512529469
0.047677531599158995
-0.040305939276059605
0.01628621043252286
0.11892818877486117
-0.06780343181181028
0.01452923439447959
-0.007415667259108249
0.08871675598334317
0.07671686207435228
-0.0376366650762775
-0.020201529145897974
0.02314263526934797
-0.027972437444919312
-0.030311129450299623
0.06132031701356623
0.03534426549602615
-0.01139659884687936
-0.09662822580925866
-0.021608992587096573
0.053670654865076044
-0.062698919445751
-0.05604938823463723
-0.06256306773623352
0.05491920316000525
0.025827514049797235
0.01611431786204871
-0.003761043524919474
-0.06173909762682505
0.03623742146499847
0.047775741520999754
-0.003861939209517555
0.007538719287666611
0.01384573886653569
0.06448367069780857
0.0036017315921585435
-0.09132150192224851
0.03854722854135184
0.1343651108607398
0.06884694262292126
0.44724424907330695
1.0465457150327082
0.4815731270137593
0.057944329036564476
0.059825927550660844
0.006599300890341765
-0.04005198114375216
0.0853246790478569
-0.024371303688961853
0.10643465994944275
0.05613806570447482
0.03319797216567721
0.013560618571387052
-0.049967730595947266
-0.02132880886987243
0.06563351635074209
0.04350534840451814
0.03572609339731713
-0.04457143401943369
0.05361400058322352
-0.044292499241685795
-0.06941817952344954
-0.0018275298690364498
-0.0010245617909767457
-0.05859361003104499
-0.022189819483227107
0.024619006383932066
-0.08014292817210146
-0.046339619643370404
-0.01972257938653757
0.07178547634933279
0.015425043811983672
0.03338767869819321
-0.05436078460209316
-0.019300395350553404
0.04841896417044204
0.045287395398193785
-0.0533547118566199
0.013289178635008392
0.043125929755328744
-0.0207984630954462
-0.0018161305531130283
-0.025198635131124747
0.021053888753882043
0.04761189438359564
0.056598578017823975
-0.01924149625303527
0.06152486227628615
-0.041249913246309076
-0.08340965532713487
-0.06443291969901144
0.06026743039531941
-0.03577093640146949
0.08486933628777543
0.018485798146827007
-0.011287538437393989
-0.06343511411933758
0.017572889918501002
0.051669656814653665
-0.013644670779889876
-0.0611587375784741
0.057131758495615664
-0.03634229440127088
-0.02414263259260796
0.14456870240754102
-0.08729117855903477
-0.03918305212998775
-0.055883807583084394
0.006126645898890719
-0.0439683037053716
0.00839702740764048
-0.13192245038984815
-0.016848076933432876
-0.03126290469594409
0.01473893086549833
-0.01895674470140052
-0.0095587359909054
-0.05623502806223873
-0.03107362027947877
-0.11495102890533951
-0.0010720622912019874
0.02470749943739498
-0.02715905426412364
-0.06278030736625786
-0.0650655812929058
-0.016135481620793462
-0.021414424337799103
-0.0351147526763462
-0.049512042929982764
0.08619991193543297
-0.04418916995531778
-0.06805837634367969
-0.07818694692249269
-0.01704580785659673
0.05342732229625324
0.058050618866664995
-0.0016339100786761714
0.024439612643456655
-0.037991007054538325
0.012198216975079612
-0.03336015211207493
-0.035590196317694084
-0.005279600652430118
0.05781051865107344
-0.02340334472486505
0.07637750702818212
-0.033215722841463645
-0.034740790688707335
0.011014378864869077
0.040495906791228775
0.0431871031815095
0.09461562099243197
0.009962713528977853
-0.05817974303736021
0.044567828956983
0.04630900121783036
-0.02370174751818846
-0.05354687409009176
0.0361123984142789
-0.02753545899753414
-0.020444836604204143
-0.059950671539845894
-0.0018776734733523496
0.03468740078469095
-0.04461677871399808
0.03258489226441092
0.0001726326661467147
0.09394837202388538
-0.03149429021333223
-0.01587076634824046
-0.02258693553335707
0.0043926850082739366
-0.0031672667915420664
0.038695112225129946
0.08038886197852324
-0.031062236823701257
0.010118356640121368
-0.0204718402550976
0.017777856111270914
-0.009618695142356068
-0.04671577583396158
-0.006872380745338411
0.012786178977858368
-0.009543000827248726
0.02347992534965318
0.0027799373638089414
0.07406997311228529
-0.01971469643577389
-0.02821903566474176
-0.10005144969101597
-0.005175949453017121
0.00526078149584486
-0.053253067596687714
0.039257591822056986
0.010565530836495014
0.029300010445168174
-0.023232354060738418
-0.018300562177816337
0.009564107473508537
0.004258183619135516
0.03061579309516665
-0.014226614991066242
-0.009932436387342237
0.04255833784892789
0.011590403700655512
-0.025811879304963894
0.038039191869263855
0.024056076336753624
-0.021518156284408955
-0.00931952047279559
0.004615118043667151
-0.007971544297109603
-0.0061984991181768
0.02614154064350199
-0.009017226652258015
-0.04286166665943189
0.004960289230443808
0.01538526475358919
-0.05463493004886514
0.029011114560046077
-0.011531347614114873
0.06860803324988396
0.015816150786402017
0.001536591907023996
0.057418628334799174
-0.0630687904623408
0.08821532538540969
-0.02964585107064982
-0.01048568638512915
-0.09410342980419267
0.07002917997436846
0.05343011835305196
-0.025224803605683594
0.09175904756502656
0.07072002388078044
0.06702650165489842
-0.0658198753959356
0.008759374436672593
-0.07376206831234437
0.05990042290330086
0.06365395326143101
-0.02625243096130104
-0.012007240020467812
0.006502381001476522
-0.047370823601675
-0.0369906918637737
-0.019163374634060246
-0.037232670879333934
-0.061566990138927295
0.03382116793210957
0.11226958954377769
0.030315369905452506
0.10219116238310655
0.09712825933976403
0.48619433635837006
1.0195768296496395
0.4790712321081897
0.1060655828882278
0.014431449703922801
0.07518712070921593
0.018494500303315276
0.03673470010647965
-0.01363692419377402
0.0520976861017535
-0.03671629135180448
-0.03489297258962356
0.006710367810318911
-0.023925780669537256
-0.018323701725689662
-0.0737517275733112
-0.06320574022814023
-0.0021376277218925653
0.019080987484876716
-0.06139475593416356
-0.04734452097742897
0.010009720400759337
-0.02405223689225956
-0.020700951249565697
0.15940429158253744
-0.035737463015572755
0.05764528128241347
0.07078447958681693
0.07952853099193985
0.006499494651490427
-0.01602955268346265
-0.10357459433375767
-0.039914675956750585
-0.021099667527591355
0.07361978649012989
-0.05951492057967898
-0.05070256517291649
-0.014851553083331765
0.049064092871399664
-0.023751459327174797
0.06159403302025495
-0.05539384738367325
0.044185371614404195
-0.03595817647946662
0.03911610454256343
0.04908746988928511
-0.04806708150001578
-0.033024532117352644
0.08568983195277108
-0.005534707052758343
0.026279973480062804
-0.07645652700842073
0.01835593593525056
-0.09269433979859011
-0.005685849279229867
-0.059684781195596094
0.02075565751033844
-0.008955592008537686
-0.08923317722721487
-0.04699559336721399
-0.05356050488273739
0.0037613548136088814
-0.06725209375355307
-0.05076512558985721
-0.04091647991849366
-0.008709188131329974
-0.07866659247786593
0.07275266712028501
0.05981495611082486
-0.03446504243769886
-0.004443753470472888
-0.03029759531783325
0.03323418333135305
0.12422996073849078
-0.006731710727308597
-0.09157097353787909
0.045902728423618235
0.05621702220165347
0.011683869140567356
0.05621781934163161
0.07929749702691662
0.05081387706550666
0.07008381786006969
-0.041134802842360915
0.0008464626173607562
0.013176911133641772
-0.018223589561221443
0.020756155005262303
0.021609755465227885
0.0029250173223040275
0.10756707645384228
-0.006855068262824476
-0.0016441418997194838
0.11799723477123941
0.05831923196590512
0.08192844799507742
0.056256364507780945
-0.02688064293958757
0.015030861223790071
-0.017736370607636474
0.03147738004585804
-0.03128412883920377
0.003110285244983746
0.04142475364019907
-0.004121972580354302
-0.01764127498140516
-0.042864617618339575
-0.01985916944496353
0.012951688064318095
0.00897232327207033
0.17583197222277824
0.0040780892263135304
-0.013739770209928157
0.1042743297981214
-0.06546260775230947
0.05699455611863283
-0.0031322434830334403
-0.04013993138002248
-0.015264370519363375
-0.027151003748998887
-0.005455865000002868
0.08283465820388189
-0.02351445837721888
-0.13657412278388656
0.00996339464792836
0.047371400223381224
0.03637266111163572
0.008710019920839123
-0.014302759647054047
-0.01979465699782611
-0.00821053689807585
-0.014501506205294338
-0.023031750311903347
0.024305549644661993
0.020525113858838262
0.11853762277426938
0.07270006011631312
-0.03269713097076962
0.055367319874737045
0.01865248110845531
-0.06531852059911107
0.01631328419366915
0.02876563429841882
-0.003252967471657266
-0.05612890444452502
-0.08027956797102223
0.05487644378349885
-0.03160810257843494
-0.0177515080464018
-0.02178942488600185
-0.03784260206129422
-0.006057038356699214
0.07077720978950683
0.06599665142364014
-0.09895437113214407
0.056375231850067056
-0.09723581963056871
-0.0355278928596647
0.03546939478799523
0.0005486045178693541
-0.0011505067448384781
-0.05603805085926772
-0.0572690726227315
-0.05445519160380287
0.010166044410140048
-0.002027675098001532
-0.04049235230316788
-0.1049540056375504
-0.0495247155298462
-0.04006231133471945
0.006319677970558921
-0.008517139162935065
0.02506647584967165
0.033805963680248345
0.04755429661864404
0.02189435437912862
-0.015246332454095013
-0.015512409528856852
-0.016678932807951626
-0.040284626565150465
-0.06568879045638357
-0.039593837749660056
-0.039256571083870095
-0.07056099812649778
0.06347932406458093
-0.04026454606583568
-0.04616007210524524
0.003051015679132395
-0.035287034178836815
0.04590182418150477
-0.003124774490505548
-0.06581099238233738
-0.03755777177645646
0.003674509321615191
0.06834798892037161
0.025861965888193346
0.0028828413480437498
-0.08054498741693589
0.013905436004466712
0.0641390911659217
0.021082929584209667
0.03854188896246874
-0.008713047163083682
0.0480642489176944
0.048651902742516615
0.12184597594539653
0.5504326552567738
1.0721729134703182
0.4991217152127096
0.12527817723085188
-0.10573572128656523
-0.007981388877648082
-0.04491076545452516
-0.06398030010734625
-0.07508367431536034
-0.03396184594648168
0.018976189450131006
0.026142972559572403
-0.0008876972766752846
-0.004382538918389939
-0.07234567974786583
0.08395129536753548
-0.02726209802199574
-0.014687649534165263
0.10106649909516885
0.004922488284518341
0.02310668112146568
-0.029941591700970056
0.06424196278715914
-0.03730689263283933
0.054944679730388704
0.0413946595804951
-0.05050379566731288
-0.11090140237057455
0.05016668539094247
0.05317684323909488
0.05731973861512255
0.05745086281356322
0.009988323389059896
-0.0058300214250086345
-0.04051283116860556
-0.006171826993252867
0.03910643299241614
0.061672435695124
-0.00048011949334877155
0.07631294651333115
0.0068594683178103966
0.06589204755750526
0.10469201290690087
-0.01501720350683477
-0.027516871749017707
-0.004523705609599427
0.04264216190600187
-0.0671899169833675
0.022921221551036958
-0.01044218695893334
0.023738753069379427
-0.03635000016748117
-0.04084829961637562
-0.020439261529804964
-0.060722198075308875
-0.09032626782826493
0.04012472006124514
0.07724333678822212
-0.04246326044572161
0.07063217917645617
0.0012541017869275154
0.04476998390668607
0.03964030556761907
-0.02272317032249502
-0.051839465080556535
-0.03317773438874281
0.037634663669671276
0.05233813828332075
-0.015667170932323667
-0.0034142533736581156
-0.05738886246996464
-0.0366941803868404
-0.018464558513199742
0.07453057073732376
0.07675720995124923
0.015598714771731567
0.09281781268808781
-0.017369044732651617
0.06113870640679754
-0.010943675609496302
-0.041589222368122986
-0.06281766026329667
0.07751210674059855
-0.024647588061730365
0.03039083562886486
-0.03640792845046895
-0.017619476920985113
-0.011533584360873343
-0.035273647615231926
-0.03614918509725392
-0.037678124087795715
-0.0314704920494561
-0.026260999535968017
0.040896289386110264
-0.047901048908796456
-0.01574795340910764
-0.03843359950379133
-0.003231055503528703
0.07360252224494776
-0.04670732073861805
-0.05283703818018856
-0.013997299631913006
-0.026435767954193636
-0.058304009192688216
0.06481851785644592
0.04741565929210749
0.0341274556866104
-0.017380785245806732
-0.10933013478084029
-0.008115754199699194
-0.04521209144831648
0.04268697639902759
0.005950550868117703
0.05814133638616956
0.029371974720300155
0.0001929670617760671
0.021926125656839445
-0.09133703035806184
-0.10911695632371413
-0.05495828167116512
0.010316091365228736
0.011246658379531864
0.04366187546045658
0.00966329290043918
-0.0037854223148534854
0.02119126201100517
-0.04983908780239812
-0.03609300281680356
-0.029838574133714782
-0.05789066226139864
-0.04913906426146028
0.025567435408263024
-0.062318669297875176
-0.020519349884709125
-0.03117775052006233
0.05435233843306542
0.010386417746101176
-0.018499106066674844
-0.025020533168592502
0.023432064685345713
0.06893050047240676
0.008242819786855728
0.05429785738407092
-0.008093099347035327
-0.031200799330780744
0.005408390701173864
-0.04168222132190416
-0.0207865753845376
0.01675143493390548
0.004871742738631866
0.004371334317500407
0.053223293184497526
-0.04481491847420944
0.1319524353590642
0.025601681173040975
0.004877927622922047
0.014560143847448135
0.03993400907531676
0.09265719364381066
0.022145410649306474
-0.04922506635925715
0.03719452752089648
-0.023692702316929937
-0.010834085211409085
0.05634253944101292
0.07706650158064417
-0.0039752825619911395
0.00760402251221638
0.04947496370851098
0.046653793301779496
-0.028575150264266293
0.12584529387115528
-0.012503243922548216
0.04640547383579013
-0.012888000156702157
-0.004100644854240746
0.04969665230955966
0.03935997415753018
0.01673885490898693
0.06920766310618146
0.02353062536248876
0.07663417460069974
0.02916885660084381
-0.047190979514961005
0.0030817501509016014
0.001623011229674276
0.0959765315537811
-0.03333347542211216
0.016331991314967157
-0.00823576558298645
0.0532735140526435
-0.05978583747357156
0.06474781866514172
0.04164427203223031
0.029237930050344352
0.008664705730916527
0.025403112962875105
0.016073190038338975
-0.05024451371058998
-0.02701851242330395
0.06687530804354351
0.046719466908660995
-0.033658647674161456
-0.04200574203845511
0.04228718765906843
-0.03166498660595282
-0.008905517133452745
-0.004797491333951381
0.056459420044426493
0.002538556327201421
-0.027250219197599925
-0.030850224527582494
-0.006501473584274983
0.014650441676844464
-0.027180629006252954
0.02307582617110218
0.13863263759758346
0.37844895441668813
1.0476743192474265
0.5151254866040209
0.04538990991075442
0.11580526639057005
0.02440817783087975
-0.03351590513663344
0.024271311071719225
0.025549047829958718
0.002719834238833388
-0.020627451427461446
0.04212492723097748
-0.01996957172797985
-0.09490413002014207
-0.006719885898485029
0.017308603590599186
-0.015739194151921827
-0.04281245405452961
0.01137697501628945
0.009459817969103917
0.07436450363927542
-0.008934273256879104
-0.003343952136864771
0.0015823360175223026
0.10063965957387394
0.029079781316336664
-0.09042982171409927
0.00061114773328706
0.10586017627155811
-0.020191644054913378
-0.07102853090278126
-0.06013223339942042
-0.043209149716064064
0.05942935535267312
-0.0047720338281848
0.011833464029084237
0.05226096109504126
-0.01962581198239692
0.006522688591038141
-0.02275339707592456
0.05447455037838561
-0.04118222192771784
-0.08723889850304756
0.0794807018655937
0.045536214096825796
-0.01951668086247186
-0.018047920232988925
-0.028651169771775526
0.07406478379211684
-0.006751191176780762
0.0818888784155068
-0.04036857827189003
-0.0015756488796454023
0.014714513874083547
-0.010538106036460422
0.06910666073392951
-0.1250226780248824
-0.054944034914670425
-0.046215332504380674
0.02400349652882086
0.01939355335385497
0.024411346336926824
-0.013223999603000792
0.07019585801702923
-0.036217455020464806
-0.0010660676748934243
0.038364216335822425
-0.02901803131394888
-0.05469932212113182
0.08696797653456187
-0.016783364677028876
-0.02752996850029607
0.015918933516111185
0.006678990077605574
-0.028310335052168845
-0.03568469226463514
-0.014847437808852646
0.013048253291321333
0.07387643978043955
-0.03786747853027513
0.06290659880123411
-0.021986743849227164
0.09825194636822288
0.06729881598243125
-0.07312657611516854
0.0319269206503736
0.07647023003944953
0.035320859416571725
0.0010205389346001487
-0.02203723852472171
0.024035488198527685
0.07427899444799148
-0.00828191492737206
-0.0574081409635017
0.018104071362943255
0.08255373402712206
-0.014652539934685552
0.0007706369330650045
-0.05716177571877155
-0.023759796141142688
0.025718964048246987
0.04727118248303862
0.0040408199822401505
0.01312626035016932
-0.0036808838204785525
0.00889300907603034
0.0691636667894598
0.05374950328740768
-0.09185829180434128
-0.023779397170764542
-0.07607960425841997
-0.013521552591118959
-0.02396716397414617
0.010227036768072184
0.08044183573839865
-0.03755319678104527
-0.03436907662953336
-0.04253202490135568
-0.03046373449262881
0.016180421180391966
-0.02619428481786389
0.05698430526930592
-0.0070440650394197795
-0.03309112321524844
0.021592439630245465
-0.04166727781962968
0.09565843839880192
-0.006743288886220337
0.010158694995621073
0.005251491400038524
-0.026399298915910092
0.06703786054561826
-0.03563434359455677
-0.04364247722424908
-0.020455293906847666
0.05270576701774722
-0.030844923983460143
-0.003758204245982099
0.008339334421036649
0.04054500736985824
0.00198494638066545
-0.04058151278627514
-0.038225082425274365
0.0560546387006713
-0.028731099039909877
-0.052267000533969814
-0.08370690252708168
-0.0537803220852336
-0.07682648014770203
-0.035313497463430786
0.01686020173735461
-0.040089289703579854
0.010711423599364812
0.026174585909941386
-0.04116471347677024
-0.010833221905751624
-0.014669945560107985
-0.01820441941928576
-0.07522741276253497
0.044499802576494205
-0.003622728281135529
-0.1421112203389516
0.03377540442900409
-0.04953219945371483
-0.04074395198733007
-0.03869129349743189
0.003730406213039879
0.010844768349786356
-0.017920458233976214
-0.0068710828805697444
-0.008159371642656897
-0.054394308775088246
-0.015590870750575135
0.016052273044748412
-0.0640996323630487
0.08195208338277805
0.0741486066115976
0.07746839330155975
-0.09680346996575512
0.02983536457209407
-0.015822205156778995
0.009624346611029802
0.019477682798556287
-0.04699551285722928
-0.06537939710013424
0.11915642164122585
-0.07490536805163006
-0.0407634893818662
0.05749210652701186
0.0057370266395527355
-0.0308504253904323
-0.01000441433011623
0.03357315941134586
0.04066680040242848
-0.014787521038742325
-0.025096223938947095
0.053497103288251115
0.061078782466748666
-0.11360232284455957
-0.010911453910983875
-0.060684442304517285
0.0693381072131888
-0.000742592088855909
-0.030829823055878204
0.037366641382105346
0.12578751011056888
0.4611145704092243
0.9081496767946629
0.5340822549515157
0.10078291002136726
0.10329065111448626
0.004605648378690774
0.04618025860442298
0.00809041975030692
-0.04395712469182117
-0.06178948377952666
0.021290330876362885
0.057279150472037604
-0.059471339412979024
-0.05406763640406148
-0.01673946515628729
0.015606417888066326
-0.04110079873728756
-0.022456405308624222
-0.03877808792762092
-0.00034102558371878144
0.021671042600558812
0.008680823460374281
0.04860732325051917
0.028833129447177603
0.0033091895639188965
-0.02567351654714233
-0.03323320969760903
0.042765480433769015
0.02469639605572753
0.006413241343622972
-0.036042142241979665
-0.03328013795688866
-0.004309927922484124
0.011560176177619477
-0.007098500923704814
0.04164756136619651
0.09569309728635401
-0.041514154966371265
0.06789532279731526
0.018409822368132628
0.04403876052154742
-0.05604584721816104
0.0818342630642776
0.07513376451945666
0.033776395032767116
-0.05468294840098831
0.02274124771329179
-0.05175210350132617
0.019849871109281797
0.04960501383692789
0.013752007739359121
-0.07339077991383336
0.03933106369757828
0.05736196352219423
0.04049920090158451
-0.01073394706789569
0.01638227507902269
0.02805744030687439
-0.07031385970079061
0.05767211314566363
-0.0743568651249846
-0.022421139209705683
0.038178607587079194
0.00790405988082512
-0.06923886237115585
-0.002826843081286308
0.008379652434830394
0.014518961142236116
-0.037870741759777546
0.017943347432380182
0.0763606799750486
0.05986021116045864
0.009778519095356946
0.009032775291269377
-0.03152971021523674
-0.013420187058944561
-0.020779138563385858
-0.08284334005326112
-0.02719950179686517
-0.11895441703918273
-0.03958211874136458
0.02534266944363994
-0.03798782610161633
-0.12432357081065809
-0.04622063449752526
0.009917348113272854
-0.13856409932582978
0.06546720506371763
0.005678177754424331
0.02361933776077836
0.04147107753562978
-0.025821745730013453
0.039364064747249405
0.001769126407976849
-0.08265113015789066
-0.016864166724674085
-0.054499015214595686
-0.009130651937231189
-0.003614647251254978
-0.013791397673107367
-0.005581201153825893
-0.06170579040799684
-0.02654215649757823
-0.10643220625007935
-0.012302471759229673
0.07485476164842844
-0.004399542045168388
-0.040484161257594714
0.11427995524110733
0.017284123581989434
0.05190254120537041
0.05353966692747249
0.002237133967891094
-0.06149817816963876
-0.05792989774906659
0.04266472525064206
0.027817463067828847
0.01364807376752651
0.025668193053102015
0.011434199678700777
0.030764200009893057
-0.0706871174419764
0.01127883476938681
-0.021437831515742703
0.0428917091891228
-0.07196601553649089
0.03553071569555408
-0.040534411323400556
0.044502278802041696
-0.06367239707891496
0.02950520423006018
-0.04639949141399777
0.07778541857058424
0.07461262405065347
-0.021362410251018236
-0.040489035369617205
0.018866121152209404
0.023702224328321527
0.031012816958645818
-0.01019091244940679
0.04853162067987515
0.01876273940719743
0.017084456405161663
-0.018434948718435453
-0.014355879431887854
0.030295973966267403
0.11512603171060168
0.03952449230300851
-0.056186407410576594
0.0750723051676017
-0.007909413784899216
0.06479383642664453
0.0074505260946690416
0.015559545034366613
-0.015088530756951136
-0.015518931047855719
0.014195308668347274
-0.0787397579643296
0.0006895876975913723
0.030103242520536668
0.012645251333917605
-0.017435493661154093
-0.06484032808931033
0.0734284789599452
0.07519213384478875
0.010685627602791415
0.014724000697502702
0.09482114461949927
0.05207054738808486
-0.037051973706777507
-0.0063562321563849266
0.020341210511034165
-0.018274644982211576
-0.05761827502184851
0.10558828002356545
0.012502697502116267
-0.022883723987848808
0.001747766826524088
-0.02983037693563792
-0.0049292016784128305
0.024602629136662585
-0.022315777380119584
0.03660271135548562
0.11826451759033484
0.03743211367971876
-0.00999866966705916
-0.04555304943973541
-0.050608735251038456
0.06339919899250147
0.031090900760989044
-0.03533874365926701
-0.031777542623734695
0.05518564225577334
-0.05563488990858981
0.013905115013182838
-0.014517358045222875
-0.018728295672537653
-0.04323692127769646
0.04114508474599196
0.1293115922932022
-0.06803829530922333
0.13543853019437502
-0.022404803149043473
-0.008212763719151651
-0.0011866829610966314
-0.0741093074026347
-0.04562270474406904
0.11922389573671272
0.050927626582619526
-0.0711129132486843
-0.08252664044429406
0.035915109417660726
-0.03067874111287784
0.017520814032781454
0.0790777226170983
0.4971823708739976
0.9640812946200912
0.4569088118638421
0.0929850149557031
-0.016003150293938836
0.03485175629810151
0.013028075696997876
-0.1069751991065336
-0.09480955973212113
0.03362717683401136
-0.01758290462892005
0.020066028256817893
-0.03256356773899917
-0.0390859289465465
-0.014840712112894573
0.09123973728850761
-0.0023376589668611144
0.02138785153923521
0.029928597950549835
0.014069934652218419
0.0867703411634907
-0.03916546970404017
-0.015069214099669066
-0.02175498891931424
-0.013025575784973707
0.02342093565292015
-0.0823824284902585
-0.06089031241434939
0.0002454712092952772
0.03398541616172843
0.009470434673464149
-0.07267381547139783
-0.01396885755078568
0.03206594245280237
-0.04798412824881387
-0.013114067459225862
0.0391829539986454
0.014532837611402769
-0.03657935765612612
-0.018113526866647738
0.006488455172385606
-0.01887335638555025
0.0005282240628037383
0.05390955527712676
-0.08331906158453989
-0.07431074313695446
0.07139308958987708
-0.07299955457987838
0.04477144382013592
0.07118027305697515
-0.016472446217805883
0.013032661107265307
-0.055052796516087736
0.038794562735837056
-0.033113849974023786
0.02928309397582697
0.044265411664659415
0.0036682336045786874
-0.01889395232502135
0.03215693311599995
-0.03170670676812591
0.027588541421433313
-0.0595329821224303
-0.01757144338451939
0.0068304656646480865
0.11305646329310509
-0.007036133116926162
0.08864881865425855
-0.10592799463732823
-0.004010751116888977
-0.04347773909054244
0.025898375873381663
-0.02048666461400707
-0.016598484171216274
-0.00510754222445425
-0.005524975673412066
0.08627191819287243
0.03055503158321199
0.022692704620468608
-0.09597141395924472
-0.04986381885100266
-0.061452399705932886
0.052201785005342165
-0.003023866832367633
-0.0770754693130059
0.02298278820034615
-0.008968938769943738
0.08269076863706709
-0.06370466807250809
-0.061688594460898895
0.008667138160538485
0.029487114380396834
0.010131593926497817
-0.025679503759148653
0.020220618400398696
0.06916807256153261
-0.05459844715284248
0.0042001848121252855
0.008410528151070185
0.05386732736910013
0.03552864614513023
-0.09466029620192151
-0.05474552794147428
0.03252293124661739
-0.04656255689943811
0.03588553726017617
0.0040257279544804216
0.08679059639375684
0.07090760125419651
-0.026884055343553044
0.020460599317120316
0.02098736210414077
0.06560618867742883
0.03042545901557349
0.01346113454447808
-0.005525331906813983
-0.012116120998789608
0.028138463708276624
-0.09059555652548552
-0.021666752538618564
-0.04168726683441445
-0.0616413068860045
0.032171635745054356
-0.0018935745294980139
0.07244958976887088
0.10175208795372169
0.013769292883016577
-0.020515366885323655
0.009620776630166068
-0.11704699848862353
0.01644331954450763
-0.003525926258969077
0.06748778364625445
-0.03573332769794177
-0.07992670023646292
0.02381692129266262
-0.01963775802859382
-0.019153176407837494
-0.03361111859296625
0.05162103243748341
0.0004343153793783289
0.006572373591686347
0.014751575190314718
-0.02592887313106833
-0.07428655397775473
-0.013845562460134126
0.03471214760441494
-0.027959376576605185
0.04968590032308204
0.09236147027439646
0.0026259177502379236
0.0809054472720698
0.0031874098787895073
0.10489627960787017
-0.04724989172631766
0.01926427966805556
0.11499649861069157
0.025594693628936613
-0.06772234509227522
-0.04257748849231687
0.008480538576626876
0.022750803352188903
-0.004880982888254116
0.12044616683807151
0.029534741235142093
-0.0762246230223131
0.07070888327181422
0.03259015351762841
-0.0032536352255191528
0.07479413251811762
0.07821170670424932
0.06495986814254372
0.07022704767687743
-0.020981083874246183
0.06203985077556404
0.018922566908940605
0.005790143532301399
-0.021790424138880292
0.01712806298955964
-0.08160187154543967
0.014206774960315803
-0.004291743251874898
-0.02784702144397111
-0.02971728911426242
0.12256700367589064
0.005390722831952005
0.06361931676986653
0.07867696150971448
-0.036139566216151185
-0.04511447483112267
0.020192797218970354
0.01424695428447993
-0.0169725020072281
0.09068892906363413
0.41289173589041567
1.010330499076974
0.4572536414035736
0.1764243366566704
0.010405199072056847
-0.0198264856289102
-0.07964411630262445
0.012410105279625317
0.007701769875237715
0.02533632585161394
-0.01270473190471066
0.09504886832461332
-0.10203982503762797
0.05012544314326274
-0.02659436540310626
0.036833308194981366
-0.02975547488295386
-0.02558462863429963
0.0026385012251262897
0.030258822754749684
-0.031092087115676344
0.013048341287368294
0.050213484565594546
-0.010118254133766958
0.014723831678151535
0.09700986410451388
-0.0225898051285572
-0.056300747653326426
-0.11579152558939643
0.04091984693199799
-0.027402243645758287
-0.03591314762137331
0.008201177844718995
-0.01911872382771329
0.09540694518935677
-0.025559008689635027
0.06918551703820223
0.10048678511438786
-0.03954788593712816
-0.13247741384327535
0.045958378482883144
0.05925365382470004
0.06986191142472525
-0.019738231727659847
-0.03206663636850495
-0.09844263334580285
-0.027238829678898253
-0.059443400500011304
0.030295291339045946
-0.04753958827309935
0.01151989049587422
0.038527342399078665
-0.023446809961403886
0.024758066029420323
0.04371492108489783
0.041762690816516
0.03626100931328929
-0.1118390788208127
0.01719391516285169
-0.03368114516925464
-0.06298858929800148
0.042311658983829444
0.047038227522739916
-0.027178672211393896
0.007850120822532626
0.005582697899702383
0.06944871768396252
-0.023925861090133407
0.05618602861034244
-0.0153778705020798
-0.07238741597699964
0.024799597380932667
-0.07277491058824169
0.023108240688771195
0.03056968444118588
0.004677525021904782
0.009574144170944113
0.08455837414411732
-0.09151536542696402
0.005347260700275774
-0.013711138551146222
0.01583780890502316
0.06830337618907492
0.03357573711562892
0.020276894239532092
0.012504756322205466
0.014266408905820037
-0.021463209025048356
-0.04661723401943374
0.07372286848502027
0.06941631867895477
-0.01362992546971764
-0.07061450714572236
0.036521675228089336
0.025295677093389875
0.014275046677479891
0.08554740278862039
0.012447669411838643
-0.01474952831713012
0.02784980345243744
-0.06946529463595955
0.06266926491757151
0.04701033421793283
-0.02286548779385097
0.007727606313316593
0.05083320577196862
0.014829335764986046
0.10469944948688177
-0.06350983987988058
0.03420484903965269
-0.05629397849693446
-0.05568009309745792
0.03506528452637216
-0.07538707165733997
0.06609118875539369
0.05905642544278762
0.014927980265702932
-0.06053149084787027
0.06234007203353286
0.011742559127336271
0.0656355533042187
0.07982204972685418
-0.032149370598106145
0.10060726491462102
-0.052249204216558987
0.008440921309581313
0.011340271197645718
-0.01439101582961554
-0.07547029910743847
-0.00021812596622842494
-0.009981544900936244
0.1051489346952568
-0.05187502944375738
-0.0772463188097551
-0.01210624531346603
-0.041501314624692365
-0.06174900402221298
-0.0012638742395082625
0.05815233498810116
0.06914714567960686
-0.08590600692513212
0.015882784589028236
0.036588874201963995
-0.09428265912698297
-0.00404036976644179
0.003861035214634192
-0.027002533764870613
0.10771964587436139
0.016553569502050797
-0.03644376869058968
-0.034559918885755846
0.017099352140015317
-0.01003685803472907
-0.01668594677007334
-0.04801360693639534
0.024709303045405435
-0.0005363071949522459
-0.07564906983251646
-0.009484224707580466
-0.021860700018849155
-0.03602838010171444
0.050617171452782696
-0.02383878558217765
0.059779476326841566
-0.07662984075585436
0.02348625344508088
0.002446899766384231
-0.05170595087120771
0.04753996885772485
0.011327163039084022
-0.037401054736414405
-0.017668111007385624
0.011243600000788903
0.03847208158327883
-0.005511597117430933
-0.018020383539408682
-0.06867287359584305
0.08043025721204901
0.003935204253537979
-0.06146969738209959
0.08770188729121929
0.01698352188167754
-0.017869241141815838
-0.02457067024228356
-0.0858108006292719
0.04252358769745331
-0.03194628111426627
0.07108945847418943
-0.05715259432363401
0.05853092489986164
-0.09377783908621873
0.032242007945272
0.041780787307963
-0.050652848375591
0.02558977352190773
0.07627590354595981
-0.07545176873580327
-0.09743971634579335
-0.028306651711813315
-0.02736894322580202
0.06941390717422306
0.08808993956630069
0.022335706197914747
0.00025949147162775783
-0.017624180465546677
-0.011093145275897762
-0.007438298850195816
-0.06115533511170734
-0.051438432206425556
-0.047663157899858345
-0.012880190768933111
0.0041667722039260505
0.04412425558398769
0.10948890354457289
0.5052770836391542
0.8905131749152907
0.549045999134989
0.05703066403424269
0.038689405739338045
-0.05765123043517448
-0.07663698816613691
-0.030013954164866297
0.01246808453738115
-0.052661913538612076
-0.030560880387465933
-0.0206850357018971
0.00277303294996689
-0.023546136369273454
-0.0122327898466568
-0.015175255020136481
0.053541547517885105
-0.017675677971236852
-0.011686265371740528
0.08186568380241753
-0.00772211987751382
0.05087284911448382
-0.0917906052956834
0.02688803779079384
-0.023999796138295143
0.07021668964041176
-0.06105745560540189
-0.08572710879345284
0.09026217907729539
0.06374457855785505
0.034619714995058705
0.0608751566047049
0.0015285037354728823
-0.030647043375559346
-0.014898314024593948
0.08258397018520963
0.09028817000432923
-0.0007131048161123568
0.03814679111899169
0.08109904367358449
0.019578679240029206
0.04797196207067719
0.011366849064571439
0.08330505113930647
0.05344519790021
-0.017214354475277485
-0.04936324654577076
-0.0720385430351272
0.009618737708177092
0.0601690799776734
0.024004073131120823
0.005374867142863468
-0.026076426249308504
0.007643320754296626
0.0017460976837913645
0.01915766620440608
-0.018770199816533217
-0.00957282881759649
-0.01135384179816
-0.08187137937069827
-0.022113632769932154
0.05035632307508852
-0.0032734947636499606
-0.09401121869967753
0.04119169146811872
-0.041006503065210656
0.007985563466087595
0.030162095374654488
0.023751490378613797
0.013542822904215083
-0.08613104074287771
-0.06876640385965976
-0.018767601889614134
0.021409525881252722
-0.032771908700965864
0.0505823416607237
-0.008012659729489193
-0.04246608618729461
0.05498077029994761
0.0012608059439379662
0.08484903558737705
-0.04128567187786494
-0.01740158831049817
-0.02796464783817473
-0.020759019427643514
0.06772216515181041
-0.07143768978779257
-0.054244218868719885
0.020763300423790834
-0.13460203285427325
-0.009942900650146174
0.0326674424453159
-0.026366743448199406
-0.09072925807774393
0.07092857301545356
0.022253358963163467
-0.031536530439727026
0.03429394228696442
0.045387354434760635
0.0321617062389235
0.044163935600093886
0.0924327658641859
-0.033023998832176375
0.037150145901994266
0.04100408722332631
-0.024194599995467816
0.07081428505255942
0.04102012173436743
-0.011865076145628482
0.006583283979380997
-0.06936439579373484
0.04816083899110906
-0.0018561968821807573
0.05397071072615026
0.1008817775577282
0.008522066455026503
-0.04096298452195488
0.018529931363328474
-0.01507070761987604
0.0629804757206233
-0.031957460670261555
-0.05898928029791052
-0.013224390645467194
0.10099561927736321
0.04245784953176954
0.07806665242313826
-0.05644198184901004
0.0437182954426743
-0.04715499366501517
0.0029014980583523253
0.009899061814178434
-0.0013063223702519627
-0.062116251143685464
-0.06418134551094241
-0.05796816808597417
0.020389578234480486
-0.12347090611955934
-0.006767246100541059
-0.014721827673835364
0.04412280037991481
0.019119493029264172
-0.007158186103270435
-0.008480578411595134
0.02233173042734364
-0.02261341571055553
-0.040353693673653046
-0.05544549501991636
0.04066844916232096
0.10731151636885977
0.025887554303031846
-0.01629981634865107
0.10073089073685851
-0.018102091783011972
-0.04809407745340735
0.031852811798488
0.06262632329840381
-0.03927491863316879
-0.11087310628189867
-0.02499518761443234
0.048329714789045436
-0.0119188637771908
-0.005563642748379546
-0.02378364676227604
0.06062203338658792
0.05907365366791885
-0.04759007186235063
0.023082327624062208
0.010948950584252317
-0.018093671599261667
0.061484867434422844
0.11296911258676426
-0.027285528906772438
-0.029016838253788153
-0.020070458538742866
-0.002792451975869159
-0.10464160541481132
-0.015193733584518513
-0.029419966320783603
0.025665324223356503
0.033500457476113375
0.032700425826385826
0.01889148016550701
-0.0504848650595213
0.05944136197741358
-0.042487704229811844
-0.033346749894139334
-0.05263646148709922
0.0946803158354698
-0.05049793376956623
0.07041344468314782
0.015128141522698918
0.0343465557386848
-0.024912489717549783
0.01362064376900697
-0.03514982248225583
-0.014414222912603034
0.06097830112278879
-0.08624787321547295
0.023922241405102865
-0.008112019235284054
-0.11573139082665913
-0.07089038460955921
0.009552423081537186
-0.0964481670370893
0.0047296653556473285
-0.07429614645944593
0.11430730689805527
0.038583535354087053
-0.06674212863009386
0.025180600171941993
-0.004305819586974529
-0.031187684625858948
-0.04153601176080055
0.06410643720304932
0.47997370972039255
1.0315888501145116
0.45662577113162334
0.22138584156962196
-0.046375966741984936
0.09187719206070814
0.0258485036676133
0.007367529602248623
-0.017243553589446674
-0.008625652665346258
0.04192579146458436
-0.021588866687432085
-0.05312023536113163
-0.05136115159258711
0.07462183275877701
0.03697186829236492
0.05840606350917116
0.07644044198840519
-0.06245336257787019
-0.04570222415108543
-0.015367296973189323
0.03482353522382232
0.006141191511171512
0.038813961492442664
-0.016909948264416018
-0.005298138515902234
0.023869591494639603
0.01734195819991542
-0.07363389311532065
0.01315155897225958
-0.0029015000303265997
0.01641192335938326
-0.08298483776796511
0.05150778570042738
-0.08026434929749604
0.022108811213268284
0.03175826388069402
-0.06051446092300229
-0.04410002848138276
-0.04887061158799261
-0.02370129609529098
-0.09079655330867031
0.036920590155557285
-0.004175116155573417
0.058558163419180714
-0.07085168733978202
0.011118725446062684
-0.12705644260789653
-0.04492190975933067
0.0263798983196928
0.060264937297816325
-0.012283001287638495
-0.017607982292354538
0.014742726621245029
-0.02570721306432737
-0.04004239659082606
-0.002983454365255902
-0.045344417687713426
-0.06698065648347877
0.09020446893160035
-0.09131206634322647
-0.1055037111154918
0.011012418409186802
-0.0018488079789691484
-0.07138262474250388
-0.06261421397947903
0.09527403251551217
-0.013317669555658128
0.008388687962650387
-0.056386638976897656
-0.0797342936764088
-0.011367211080264271
-0.06657506567199493
0.021288462316886084
-0.05759188624729547
-0.03664751959959101
-0.017995454999526313
-0.03763437666510194
-0.011252151873522805
0.1075172010320952
-0.0535635842392424
0.08142218925099938
0.010460532210919285
-0.05477288429017532
-0.0047688707314996765
-0.007667333881136268
-0.04657364037833653
0.0382216603030159
-0.04309592334591991
0.02037423814815199
0.0024021032166675928
-0.003586565108206371
-0.006504946251372762
0.06161508970022337
0.041708369507599846
-0.04041770849553164
-0.005046124490404855
0.04413668602218947
-0.02170270831892164
-0.06064074458299264
-0.06537772784141894
-0.02967276003345419
0.07168314201698094
-0.00666665574302463
0.0030389589093255663
0.00813428401684948
-0.09932876995825128
-0.002031920853089995
0.015261791787326862
-0.03220436839828095
0.031859809159194695
-0.026926692718744445
0.07144372971124957
0.005245745176257654
-0.041622621768315216
0.061956623494429125
0.06161602618414638
0.00534205466651738
-0.00235213592256385
-0.011837097807631008
-0.014399429140410317
0.038030996871430744
-0.01048765557326595
0.007125122586798695
-0.07431105932525699
-0.05661602764956203
0.05913080466603096
0.00924802247292609
0.0488972361463674
0.0012620217504812784
0.10234156993736628
-0.06547906133823432
-0.024940861459192696
0.08595676581826128
-0.022131412416093888
0.010777630676402436
0.015187559006833301
0.05475222962232055
-0.05352975728795178
0.10721354702460935
0.02612177906929919
0.029892295734425284
-0.05432922013927473
-0.04146657893242533
-0.016599425505759765
-0.003905417458195095
-0.06699918803372264
-0.06566747133818208
-0.017180925786366413
0.0522603976186464
-0.03788208603070059
-0.038178623190817815
0.01876636319400478
-0.07545622361168292
0.045945529932317875
-0.08163509542776407
-0.05582140822592742
0.031560980874663816
0.023889673892155225
0.02749572284717417
0.0021507514525467334
0.02450843030355858
0.009566618729457787
0.019450765470054733
0.03542513369817628
-0.02031107485921156
0.022119127854046884
-0.028743780997917336
0.016358974631093218
-0.04231848852317353
0.04937492562864076
0.1625723994857312
-0.058330824737133594
-0.024167999728072403
0.10397803703684444
-0.05616936876234259
0.06280490609380922
0.000521894151019341
0.08164875840627113
-0.06469554959260942
-0.046337996303341795
-0.06056006125333945
-0.06389957106870083
0.04413041926268334
-0.012065840869995978
-0.013415224789080719
-0.05118990456386983
-0.05259490980018225
0.0365169403305709
-0.007757128848783651
-0.08737573053742789
-0.04930752893480633
-0.027372656213961573
0.03859418694103886
0.07193420023579941
0.48771239483579154
1.0234856642415149
0.5382493336639292
0.1309537498099501
-0.010688171520341109
0.056123800954858895
0.05485653589190181
0.03012338178837953
0.05034719151601335
0.05804503538155939
-0.020496152594723663
0.13213314324119432
-0.0015232292586862203
0.05926208907017493
0.02963739676112412
-0.0011533113887972266
0.06282899626446684
-0.03218585218982744
0.027117308836333148
-0.07573883075160484
-0.029157002216164137
-0.03573131821432087
-0.06868996817844979
0.002887833705536152
0.1247073224644144
-0.15626088432407356
-0.01336016316039605
0.028372847382269546
-0.040746866717514346
-0.055099984021785745
-0.05707489153536373
0.07509556553544419
0.024590674264763395
0.04055134442946062
0.060413499438464136
-0.04985762608775318
0.03588331569498202
-0.057286336070022384
-0.07344277758600984
0.08415407563459615
-0.06768258128919213
0.012454817138155801
0.04788879021120174
-0.08584335519053563
-0.02601497525682342
-0.010144609164382678
0.018241371457357287
0.05931919978242931
-0.04654101232763586
-0.06451353092003166
0.06047011728211883
0.10239470635759605
0.05787291262902072
0.025627471104840815
0.008032886162180609
-0.009325240251116146
-0.05018217968742368
0.004388583652737477
0.006311801898207563
-0.1130649237049092
-0.036839788802075044
-0.04322449432972994
-0.06261722671954251
0.06326096088078652
-0.030957704814031813
0.06789433730750831
0.012046080070658379
0.08915703260733132
0.011087368456008904
-0.07853383029978601
0.10066548337292983
-0.059128543397029665
0.021328238959886187
-0.03954877356787359
0.022853540748250262
-0.033349259350375214
0.002362052495291044
0.115251877962287
-0.025067720820330982
0.003654239584713687
-0.0708072866167953
-0.01810129430086807
-0.02693423818507251
-0.041979886511397474
0.061685271633832445
-0.03950970132138665
0.04285388457018973
-0.02950022678548624
-0.01819209997346106
0.0008726184921656144
0.03882220996052559
0.02952109770984517
-0.022308887534459747
0.016337961731678587
-0.007865995216801357
0.022299394531305233
0.03718310826935533
-0.07180777858376092
-0.0554947884252379
-0.11944066497306588
0.03235751899042481
-0.016619483129448265
0.12465199789188869
0.018487691003338434
-0.006101184898080896
0.026481679343325078
0.045744893744039505
-0.058079104953084174
-0.020267403052045926
0.025851178800987907
-0.028185010846196665
0.1453510026245757
-0.04940386206739433
-0.0021732348793257884
0.009881478196849527
0.0029121991928273967
-0.06091961956195677
-0.03350267693218697
-0.013437016892243074
0.03747579519258804
0.038418552722377874
-0.025857395968969955
-0.005264416358432653
0.029414251573437092
-0.0017814752538149671
-0.03676948667557322
0.004293824214993021
0.006595565977957904
-0.011962822363989033
-0.05965144312044063
0.056130554180433126
-0.07603767636687743
