ecg
0.5138624283435745
0.9939997485949285
0.5764134068246343
0.10266878714209308
-0.05167814744916685
-0.015828391854982513
-0.02557863781415731
0.026620219702828792
0.009209353476211638
0.016206785060757456
-0.027000110597101435
-0.021170163245901912
0.03506826807228319
-0.042201438369327944
0.04631045305822642
0.003988583757464389
0.05410205632612657
0.029228982802262583
0.0432210710979001
0.14065898651028505
-0.0790487140871421
0.014386793240436076
-0.018159350381359272
-0.03438271022344771
0.0014893313724306215
0.02898539153984543
-0.01716824950969732
-0.08917468902941998
-0.05753923503846491
-0.012379306957556728
0.007857718134718243
0.10267006348865954
-0.020128190120805134
0.01441015437054402
-0.009064973293023347
0.05266654893742023
-0.009028005059274744
0.02719300386864645
-0.036410919588839595
0.06045726770456771
-0.0013089580284741508
0.07245802178772702
-0.044663104228853986
-0.09725917887505733
-0.06360014506623025
0.024282104721218726
0.0018878049679608066
0.04967341118486196
0.07230508221864607
-0.00699114109524744
0.14086774503635147
-0.015171759571215152
0.04247379573550663
-0.08648880434603305
-0.04169961102695418
0.13007494283966078
0.021357096697377644
0.039947445589538166
-0.002459071303000113
0.0489819766404689
0.044528235522957246
0.03059979930302871
0.03362582497382404
0.02747403443089365
-0.05060540022509422
0.09927215209697052
0.08893644052771708
-0.026261816400471545
0.1298600502314265
-0.05443610379208698
-0.0031108896097361317
0.03681848434521084
-0.0247159615827596
-0.03905999623324082
0.08137500801821382
-0.08684466164569542
0.08640800890616757
0.03251075942426187
-0.02876704023784764
-0.030452263795542944
-0.059084102374761874
0.030120483737702028
-0.025247277903289123
0.06542957438325202
-0.05937732752419084
-0.024440523621007175
-0.09237518566891532
0.003397875337501772
-0.017167753532657003
0.024042310136936428
-0.09738784898044098
0.10490930004950288
0.024775495835471645
0.0870626504550928
0.0968455386399681
-0.011245377676713303
-0.058619719533372375
0.000760933365374223
-0.0765274982336099
-0.01964305317017453
-0.038630717071611115
-0.06184747225135461
-0.0027879868934604208
0.05090123856412444
0.07038010691839107
-0.03527684484245027
0.05204590456573961
-0.02505873350640049
0.0209100482719065
-0.0017182699844013494
0.027524998453841504
0.023422311086603188
0.03786624957125096
0.02788587173728742
-0.019174156329969938
0.13615077995478053
0.025544860159386614
0.0912917631514238
-0.05423591782059455
0.08323348162507602
-0.029124506387401435
-0.021371663582222526
0.0302770177634932
0.01893614693238309
-0.019316124399814154
-0.052230368357873216
-0.007720388680254992
-0.05225381872430423
0.00757327633812447
0.05469003349029755
0.011915313124918388
0.018149444273668585
-0.03435308739076024
-0.06062621735480764
0.046921854201310925
-0.003075978711623909
0.03610568230644713
0.0009920341877325699
-0.0017683376793440474
0.027801274532558592
-0.003194110120267655
-0.003317273284226877
0.009029982113176791
0.024042790121619317
-0.011683552564397955
-0.011373222678542474
-0.0467159230259025
0.0719843502827973
-0.03288856465179839
0.0960361012707906
-0.0035957314527405738
-0.12474751864822038
-0.10337749024151471
0.0034216534137093274
0.4349467097046755
1.0433377668597479
0.4704592768443608
0.16819781807722833
-0.09201905029754692
-0.04644394625711701
0.05939200585531701
0.03525799696655462
-0.08612626611033647
-0.02845318135254557
0.04477622041330142
-0.027244435622210995
0.004138577689866339
-0.02345836250983949
-0.028539558673781797
-0.059737323754968964
0.0495798802518402
0.11120221529079673
0.008379286475964946
-0.062090629455980956
-0.03772736532515638
0.08405957550637211
0.020348287782718636
0.011227002036386928
-0.034467676719645034
0.013666683876480755
-0.014108740355873598
-0.011475014773605928
0.01788954993120776
-0.10467121640501426
-0.05767605236740119
-0.05786951923535793
0.06426544528912508
0.060183432466551307
-0.04211641614190933
-0.09906552854455332
0.01810006319489535
0.008821576767984287
-0.018751095751299966
-0.022523599575523592
0.02157689375463729
0.060903913844234374
0.11119892105397727
-0.05421426133220081
-0.0027496892772555766
-0.004554226841729787
-0.028625258432677037
0.031063565114047793
-0.06703042943077407
0.009824808637133746
0.05115134736823817
0.005320752302856781
-0.021449672239289442
0.03155918160031378
-0.011469105695038645
-0.0583383113398728
0.05134195566180425
-0.04121688415751519
-0.0838362098196207
0.034643460492814464
-0.03382864717312439
0.024191793462410408
0.032510428448140054
0.01099021719337237
0.05476557611410951
0.04317795149613041
-0.01048546475432342
-0.017901935340636287
-0.06206545832436555
-0.030855118118140457
0.025715267076867845
0.03262381010017802
-0.015940828496421096
0.03428427157765256
0.04667052632978163
-0.038906586630963455
-0.030464713400880805
-0.048859171340856766
0.04759425836506146
-0.0032233651052481177
-0.01421334709029757
0.0777453296913694
0.023660010947273675
-0.01914899048157393
-0.010303086965556504
-0.06799655078033263
0.0519577965427926
-0.02383184030572354
0.033519248101798314
0.0036501335438358174
0.03745450928271967
0.00861726900255836
-0.023401544932928755
-0.006118343267879002
-0.022557171802936364
0.06367067693900529
-0.022849842410194793
0.010529972174814295
-0.02484967435030389
-0.03738199788762659
-0.03771187139660433
-0.028675019492577326
-0.02298584579885392
0.06384675736982393
0.0054921440150955455
0.1098307822802892
0.024543091018191143
0.03158506389442563
0.07504218462342345
-0.10606478785648504
0.004626056821605385
-0.0066841148254449525
-0.04031427826845343
0.01831550420202583
0.06358894932367816
-0.008960393231370314
-0.08005248685358154
0.02905082163966898
-0.009389561309255905
-0.022341985012365312
-0.03770107701328
0.0059098786355501745
0.06474815329075945
0.00018942829520669297
0.02663653116877143
-0.014595939260308105
-0.02110047388914791
-0.04174616938204568
0.0243713589532711
-0.06808249308885216
0.0012732397515037154
0.03446879713132868
-0.00614677270250099
-0.037409249901594326
-0.027382329625131974
0.014261221354677273
-0.042140810546223706
0.040167272984226995
0.04097445411565925
0.024126544605800312
-0.02684569675924274
0.029437318563917975
-0.05238629474275586
0.05824627247274788
0.058584016440142474
0.07828373188157561
0.09150068290914225
0.007698874498326908
-0.007951680405118592
-0.07101799499084106
-0.03172325830269014
-0.01382001954255251
-0.01121812869460553
-0.13060068516381446
-0.05748863554037077
0.014577250596813127
0.08518474777223006
0.10379771475902169
0.6168920796827011
0.9319785125112054
0.4360249443135908
0.044512871388232005
0.07272747159451273
-0.03175188118606163
0.12423401461107955
0.00690155672040391
0.09203634160889267
0.001388730415420889
-0.03422269797331696
-0.0360089813493202
-0.1201378286507834
-0.04921574374064608
0.011329608571938585
-0.039676158611172394
0.04482627143072722
-0.03891338269554805
-0.045981477207958824
-0.022625101972204412
0.0675106522541795
0.051062981492582815
-0.08314046066921803
0.0032224483233513606
0.06618803074202605
-0.002425251405410396
0.044554754843018476
-0.00553774231012527
0.06076625347674765
-0.0022795251626303065
0.02939120626013332
-0.0637334345015154
-0.019540782035823538
-0.03307865819257347
-0.04598205382174696
-0.07981563668643364
-0.016796557523712275
-0.00427523653227161
0.05006425547747672
0.021169210486202777
-0.022553172218136498
0.009030382886745477
0.019389310098447937
-0.034695099814433104
-0.0618670126930297
0.0029738886307133735
-0.005172978558146637
-0.09797982523693373
0.04174814935891789
0.05997957275425184
0.0062933538286229955
0.05558045282702048
0.0568109789685891
-0.044635511310972625
0.020021085000099362
0.015089047353125837
-0.04451608467425949
-0.02154490277377609
-0.15414529253464881
-0.040849260901304904
0.052762575484386454
0.01768742137005015
0.04771617730927681
-0.030395967689988392
0.009791359123396352
-0.035809793874325584
-0.04395663841525037
0.040158361524488956
-0.033866082182368244
0.05261322734372197
0.0008493166459399939
-0.041731711070448874
0.05257787929367398
-0.1120620980914511
0.02295864138486812
-0.05596332458756316
-0.022960555231806144
0.00856425351813843
-0.007046706047674327
0.1419009974587159
-0.021120882199247102
-0.05001422121643526
-0.05649027424997526
0.035138041779648535
0.0429871165231431
0.038481744697006465
-0.0772315178328638
-0.028264139473731183
0.057374902386270965
0.059642191407753536
0.0710456388838571
0.018517705467264663
-0.09622980329559871
0.022209560922590837
-0.03348722020312586
-0.007333542846422929
0.04448933315494821
-0.01163680061731913
0.013673324461620102
0.025178218334349772
-0.02981694185959981
0.05395942928791744
-0.05818879228098858
-0.009899341162086081
-0.013208541996801394
0.006830691866930538
0.0029000415655359058
0.030602342219043562
0.02725277436212378
0.02613787949589126
-0.03592930617174981
-0.010668313787382465
-0.013546664662316191
0.10570898329976375
0.0402850321504725
0.10855969955626306
0.05953217288193402
0.0026091275266536453
-0.002298081939529073
-0.06593080902798884
0.0067076521976264444
0.05965371851948447
0.019760905193998014
0.016746533779964927
0.08923522655463761
-0.007469139881109483
0.001299755339327842
-0.003064426957877047
-0.059928795600648836
-0.05110293707865715
0.01609779693015996
-0.04936934177718213
-0.04410990723417883
-0.031147710561122744
-0.06829508182155654
-0.04434473032158005
-0.025175005819785254
0.030605540191891673
-0.027234700193489243
-0.007715380710568001
-0.050141964613533666
0.038293230004243485
0.11980500873876442
-0.06019533287748949
0.056945528181311614
0.04468337415864621
-0.08463780826450565
-0.03326868867600084
-0.019903900969097464
-0.010732297575553369
-0.06363609082804542
0.03780427475317684
0.00023978731688982405
-0.05412974665067494
-0.052026155008756375
0.11995715475831799
0.4696481170999611
0.9880658507987419
0.5249868955947046
0.09150709427144692
0.03165304230443484
0.03459451332982721
-0.1589621168841709
-0.08370066848817344
-0.02568372731055296
0.03313146077024496
-0.0865542027038928
0.050625234506971276
-0.006689979442637638
0.026381702707714023
0.06281606208025228
0.09386476532736135
-0.02079698295365133
0.06889353835692956
0.05166251443908625
-0.02657598895956208
-0.035709108550093675
-0.017262726815074115
0.0005159180747710823
0.05688053499010162
0.06887717451205856
-0.08398118179913987
-0.027844920868173813
-0.007926193042968158
0.08718666237406902
-0.029440373450175524
-0.045380562577625246
-0.03886390930636601
0.03601314103061207
-0.034821919748044376
0.07157262221542109
-0.029307585377814523
-0.007383628371442789
0.055661974442860786
-0.02146638176593924
-0.030187269858610574
0.10727761305527417
-0.0034387048386833926
-0.009792508005318149
0.013184308725532966
-0.006332730547792691
0.08035683745520725
-0.022491108664978138
-0.12268370339053335
0.012095012060305436
-0.053075356125402456
-0.005601353568509885
0.09879375881229355
0.024756569174077644
0.02096295019406156
-0.00014099895855228484
0.037110988884664284
0.08747028482654225
0.047458794179526885
0.06392911010729711
0.10534581029433819
-0.0018736018325913471
-0.002081769170901054
0.10328473473764728
-0.03898568681645329
-0.021724145393925386
-0.028311410099483066
-0.0028611889034165353
0.024250360243788713
0.06028511722634468
0.007697102241285488
-0.0025830097425558456
0.03477042651115197
-0.07029284766569467
0.00975184422441807
-0.0459669521854133
0.027068261246457545
-0.0513430487890885
0.025500270800907422
-0.0005411998152322177
0.03884670723988131
0.029409121100795278
-0.021735944867677822
0.04835047752458469
0.026377788338792136
0.033605888233537516
-0.0524903832558037
-0.022246054860205422
-0.054212261690437
-0.01203935056122697
0.050382635922666855
2.7017049344967124e-05
-0.08267297660267534
0.028138531092737257
0.0810301349601025
-0.01091671405381446
0.05523525399728977
-0.0033002720161504646
0.09619200095034686
0.10020977310801843
0.030010048495762255
0.048222858524254564
-0.05175633163588683
-0.02143254361753495
0.03821503511339333
0.019713628305654724
0.022347446719940742
0.040547896687879025
-0.00804396649876874
-0.047530250133583904
-0.04528128841470035
-0.038256678681315
-0.027697607517198117
-0.10006232876446541
-0.041164968514500876
0.11465944177842582
-0.033460119532768076
-0.057669574337814215
-0.02943296666954979
0.057648860075140584
-0.09559961095135866
0.053527526953692596
0.055005064709752444
0.027005781497754757
0.06544338064777451
-0.00766070306927617
-0.008026389765986795
-0.033561422185813664
0.03445832540308803
0.08028222977628668
-0.016368229946928513
-0.14354989875188623
0.08109219409778796
-0.0339521304629166
-0.053533567236967575
-0.010714322542300316
-0.05011725974018272
0.016554952398869893
0.0758205373817708
0.03908335940595539
0.010287054649236583
-0.0383995987233086
0.016602936398253203
-0.033988843334236706
-0.06791786787736258
0.003728372248294575
-0.048812801868870236
0.011875395573213446
-0.03378386389360581
0.033176406024865795
0.012562387143221068
-0.06896906167466536
-0.03280675709180269
-0.021460599298120553
-0.03334152194017489
0.013260718902895008
0.011290400099978724
-0.038263833728586986
0.07569682733128105
0.5362670933989023
0.9546639162700694
0.45261052270347385
0.048373526129791726
-0.06153157900569728
-0.014190378636509014
-0.06420151716043225
0.017042460747966504
-0.0625183681710619
-0.049604791407342766
0.01467520648754086
-0.09032265959987451
-0.040444872566197616
-0.0017075759742548287
-0.04156104413599432
0.011282009291575244
0.029017479194058882
0.04379832671955553
0.03881106357411576
0.06382569840725558
0.010799358963742726
0.03421002614638216
-0.015442553729252857
0.04938272526285362
-0.012643435938659145
-0.009753758296882999
-0.016105788643096836
-0.019320726952720718
0.008201168228123867
-0.0767347412080216
-0.05519257026479068
0.04232843213532245
-0.07895159685731017
-0.03280420421364534
0.02281718118234384
-0.046599253263977874
0.016555180661406443
0.012730509181434903
0.0716324105892523
-0.035062762079834324
-0.04962647661793833
0.003385764087967208
-0.022387276822278854
-0.02453541740745476
-0.032660380868015926
-0.0206818390709919
0.0511604779374554
-0.078666182972842
0.050686504586724856
0.05425901791141239
0.009268723638897271
0.06560358556427066
-0.1142262874685694
0.010664860299793973
-0.03278003525398859
0.007180064878044182
-0.10560316674506245
-0.007779037605220135
-0.049096922286783175
0.015287448350168846
0.03426914433777456
-0.030019821342859566
-0.0007695188918671448
0.08867688772915684
-0.07061261411455204
-0.04100194513994207
-0.07686161040279066
0.03144728439712429
0.002406936608189112
0.05543825604372038
0.004823048560636347
0.03832243818991096
-0.08023776232019703
-0.013750197985876173
-0.07651010120111462
0.0359453228152427
-0.04357519938026494
0.05490406596919234
-0.05166270596399286
0.004880131870371683
-0.013565834612760183
-0.018183825421894156
-0.051096449056304095
-0.011179555833530246
-0.04676254977292924
-0.007825404633776695
-0.06683814826815293
0.04532798729863196
0.03617184987830356
-0.00959634042325523
-0.03815809259472863
0.025458396910473875
0.1233414587854259
0.12873346765804705
0.0045012763097393915
-0.028327087692747846
0.03493570923848729
-0.015382905786926557
-0.10329199712352027
-0.028197072460805342
0.029608983006312036
-0.03616389019152333
-0.06676710652361476
0.047353355058733455
-0.03355373689889557
-0.04731037975804144
-0.12996254231109775
-0.02502152100115589
-0.0018913136516065462
0.020613867826959578
0.07190523743786092
0.026561047551704315
-0.08614784978999161
0.0381258286288665
0.03682270069630085
0.009325661523631274
-0.013523135947366
0.009930281381583335
-0.02047895533666522
0.07806967447677188
0.042042336683260725
-0.0026777271200382723
-0.025192852213425567
0.08791055299272249
-0.010931569847194527
-0.11655303757720566
0.013979341925451794
-0.031863511758492745
-0.0354761323638814
0.035978694131816015
0.029153285840559946
0.053885346517570536
0.027508373500862937
-0.03707260363971139
-0.07066838552949938
-0.003765101031120452
-0.09274473593355281
-0.08264177652317593
-0.036706487729410896
0.00813872541878411
-0.00326770528637775
0.008275490140036949
-0.04410990579093816
-0.0013229567378735328
0.009657245064702943
0.10113141693024244
0.015299161534681313
0.011176870898597063
-0.02869886523951583
0.09457472135695565
0.0012168409081025836
-0.024083430045026846
0.029531735813859275
-0.05182897585935166
-0.014753976646383192
0.03121862463384853
0.06606386689982757
0.5865207751628382
1.075854427804396
0.5562605442929339
-0.005501206430571615
-0.014813741153803803
0.1249138663959488
0.047748581682609724
0.00024029498290418098
-0.0037626046082439354
-0.02560439526722008
-0.00011996886416689489
-0.026065537653602724
-0.018234783724205273
-0.02358605700522287
-0.01609823578907604
0.01449216724681306
-0.07562542101753117
0.02954161169528261
-0.07712142558501857
0.06886107509160677
0.047733050403603844
-0.021665002602531694
-0.024314968908888984
-0.033912926522874275
0.03063073242293969
0.08023011322924768
-0.04875164726663611
0.10314519495215135
0.004696532327394129
-0.010545669088813825
-0.04316593666167425
-0.05940498995948369
-0.049957829064838984
-0.04338052386709219
-0.01579592931565412
0.008577992458455658
-0.030794525341226387
0.1213813764389994
0.007844604270560322
0.08994635041065385
-0.040765543190991675
0.028863366273082103
0.015946171447435976
-0.08723668247358207
0.04262292517839933
-0.021196297158972147
0.04433211912462045
-0.03719596135955882
-0.11038619157720012
0.07519587453501492
-0.061350644971970764
-0.0064463433988622
-0.008427156158962133
0.04713360409219263
0.06893586223669683
0.03986414889801765
-0.037910816928118124
-0.020036106411423546
0.033708387897652896
-0.022770425491186942
-0.027231150555339746
-0.05690168397861291
0.08251474521045055
-0.02488670220123154
0.06634536567053548
-0.011792619766916054
-0.055890970047408596
-0.04317251064742944
-0.0641052738210343
-0.07343262196256624
-0.02574380550119736
-0.03374721468945341
-0.001074063204352309
0.050280007237102214
-0.102759066583313
0.0799383174599544
0.04256436190856072
-0.08246531072741389
0.07835540097000195
-0.013706884627513037
0.009675652626434696
0.04224894233695534
0.006320836459736125
-0.01611740885457925
-0.021612310826788078
-0.0479856150694938
-0.07442455248721626
0.03092629363337355
0.04324088947636445
-0.04069008447899975
0.030938581575086763
0.0359910658329023
-0.059793458704054885
-0.01980816834941561
-0.002755443865181159
0.03341118411816807
-0.05353400574267329
0.015082252736122445
-0.05650330290875734
-0.009706872693279456
-0.005317748137886033
0.04009882630075415
-0.027312994999145968
-0.003968724095124475
0.006533171478072045
-0.034430731770704354
-0.0024211233294598924
-0.07485183721272202
-0.08154300588980562
-0.060467373950222815
-0.020700338548605098
0.10854672045681041
0.0902155418862511
0.004738976754765648
0.049651296660972
0.012690178365062286
0.041088384962098594
-0.026569971876702042
0.029910103913616534
0.01699568459401369
-0.014240576503038102
0.005114290951040462
0.06712889146134589
0.012379807301097515
-0.08948203871611665
-0.025721999603780896
0.0017794049772350612
0.017497313081213824
0.05397988316711291
0.005619793187623113
0.001970972212902979
0.021064355617462355
0.010534209249785664
0.004705382273300789
0.033119743505384325
0.07738625186755639
0.0695179920615908
0.0814423813066442
0.009869769867596747
-0.05467479917324981
0.0216255443910901
0.010568771002789037
-0.04513249734409461
0.0648444455719356
0.041804946944357824
-0.038447419723403826
0.019308539510038237
-0.025942960732722172
-0.05672629923751359
0.03761793659866269
-0.05312784762302
-0.10433949715906335
-0.01823191497165155
-0.0032759785984371372
0.08003045305257862
0.07573261817132342
0.13752892346408283
0.5874812628978512
0.9736126081670212
0.47595024520125995
0.0839611284318649
0.059400180227700466
-0.03406542778889245
-0.060223016816321896
-0.026456471299476387
0.03847018013395256
0.02087848589501367
0.08021774470454666
0.013874099667587216
0.05169731187724248
-0.0705408601920147
-0.045908046081156575
0.02973115665320813
0.05596937665928259
0.03811726711069937
-0.050141237198706404
-0.078946469331742
0.027441251007344816
-0.032420840620900046
0.039424548820144664
-0.02742781157843155
-0.048746313013871695
0.08792458821322219
-0.07959571666290471
0.0533506635450722
-0.05630547402533427
0.02319241600383346
0.025653456342080574
-0.054631936554915855
0.024839015413065102
-0.0536715823046329
-0.08995389112840374
0.05599598183956653
0.01991335545366945
0.031613543069421234
-0.031790982015283124
0.07992600621207813
-0.1101922830565964
0.016960920406778084
0.003442772192969892
0.10692154522780506
0.028221940717497552
0.01689645250753714
-0.06006125142773362
0.04546479315666635
0.037840156392422344
-0.05889859944752061
-0.029414816158966933
0.05740158190368077
0.0048664229815766425
0.0652825347458603
0.0071813036118938455
0.04215812651448619
-0.04087977548150837
-0.03995046070429986
-0.042598415688728436
-0.0305916118063794
-0.07968702063682083
-0.022018937929181026
-0.08017999905307605
0.014985205755523172
-0.1106043001844425
-0.0029003237160630676
0.0725953553480188
-0.07651274802866925
0.004674113401689014
0.0006356016758785547
-0.05885405133843348
0.0003983394478294098
-0.02680994116784028
-0.0362525150024841
0.01391232188557465
-0.01522504829647428
0.06067319466801119
0.030814158172132178
-0.033863456794277734
0.030947826009052694
-0.017718299315495428
-0.08443193764856437
-0.05665664405534723
0.02348779525408845
-0.000657467117772161
-0.008038033079971111
0.0012616184491808212
0.08508464119215688
0.04360589123065422
-0.06761569333248216
-0.004711716344417971
0.04948753896277344
-0.08445330459111408
-0.07510271815649396
-0.008033393431430252
0.027226192119750338
0.003336447687829855
0.03134859257037027
-0.011444759358892144
0.06417508100573681
-0.05060362476523809
0.005789740425616656
0.020127039493520998
0.036715277265256516
-0.020498412105901892
-0.03987886929911224
0.013000811492223117
0.08972739351985085
0.014173569518886998
0.05094951533285591
-0.029042733608131244
0.03473207817538474
0.06316212181618956
0.008871332593344659
-0.04179055731431529
-0.05317967614542171
-0.01910689760505033
0.0594611248662795
-0.0013730543929599288
-0.07145554151107636
-0.03845886818084654
-0.011425699899729422
0.10686289009741856
0.05229135305243004
-0.04319733521769133
0.03694425521164536
0.007146420944791423
0.07480315877113031
0.06109120180985355
-0.04555899916772099
-0.026866574131037047
0.015391651663187048
-0.016042465787333593
-0.05190484423298421
-0.025736051497940456
0.01632344520076055
-0.032152592047115174
0.04191562368620207
0.004275918756591521
-0.03528337021451216
-0.09912301152947765
0.02494047859377408
0.14577136070948368
-0.015993855027274465
0.10884605490238893
-0.007048045665548754
-0.07787977450786694
0.015052393945856847
-0.06688723142695323
-0.04451068681976092
-0.01930931184263174
0.07762798804223943
-0.0048036665476159975
-0.09522024354959513
-0.0017770125520009915
0.008127181741856976
0.12256268375760711
0.5569305770649777
0.9456195967271757
0.4660455391518891
0.10653210874743557
-0.07456898376525171
-0.0203203529497817
0.058271991774964754
-0.032199751121002367
-0.020388557913604964
0.06125476011229974
0.11064927608346771
-0.049070943293884756
-0.021508595888432416
0.016115755751029682
0.06401773639030764
0.02697310198067069
-0.014653999013925046
-0.025244796028733446
0.013827528679240381
0.04732975176773229
0.0006489696636510796
0.009095609226085148
0.049822711158921805
-0.09214074380911082
0.06523657891766692
0.06556519118592428
-0.00032675387615234723
0.001323403009533245
-0.010159904296080928
-0.028984785551487202
0.049563641306540035
-0.028539400845913276
0.007560459269788273
0.009719973199698796
-0.07072603562194898
-0.0542525322092965
0.02606974520536979
-0.09879319171072971
-0.05999277331108384
0.10026064936426625
-0.05584618253459306
0.040893390350374564
0.05028929458447521
0.015242225535765555
0.05933334320685827
0.04004923383903732
0.04995051077279035
0.029438560241099195
0.006232065950773663
-0.0067073132928513485
0.09550575124163911
0.029423919339856372
-0.08948116040685679
-0.14979394576669997
-0.0008149464197302795
-0.06207385821445991
-0.011785563193992793
0.05981854825653546
0.06173097799199702
0.004649829878192244
-0.022785612588156437
-0.00499810413580039
-0.009330495911691033
-0.06240713735919591
0.041676631765758976
-0.0071695805679857895
0.05659127246347748
0.030112254212488632
0.018781625941003816
0.04381196063287597
-0.05515120622054656
0.018487825237162907
-0.055910666100191034
-0.08178911950260512
0.021807944135586
0.09897357579646027
0.011506669067486867
0.07556381883219503
-0.038453030184370005
-0.03430264044364105
-0.042202600701282476
-0.0333871069337522
0.07056392569166704
-0.0702594320425409
-0.016715701808883276
0.049979376554835475
0.045504373126703655
-0.05807757515246701
-0.049145643727107724
0.04600571232642465
-0.07801302292167103
0.05131200777098502
-0.039295786113656125
-0.04340453391161606
-0.02402184534273707
0.014116667065045713
0.019377142185860643
0.04969192975253428
0.10550783038365111
0.0528840710898543
-0.014617139763119067
0.03672617686400186
0.014267968286577322
0.04197309394307602
0.012603469694149771
-0.057187760364524644
0.01756491251150829
0.01381743750634863
0.08879955816381241
0.024504154063155304
0.008512646613090804
0.03713791744810347
-0.013370594950197446
-0.030464538916704767
-0.0399973513675507
0.03692968126598705
-0.01883624202138543
-0.012802238458155986
0.017497823039177487
0.05531742243556142
-0.013271369328695583
-0.0006992569558454258
-0.032438343135947366
0.002423180666777802
0.002993037739341329
-0.01612255322395947
-0.023657696120223223
-0.06965553249338675
0.003494809136664026
-0.018467781169086726
-0.1364985973864767
-0.0012974408107999133
0.025782385726772307
0.02987927536543014
0.027299557213085687
-0.0900566364166746
0.03456070173075595
0.036193601307758554
-0.005392555708980425
0.03377645521706813
-0.002937551271599999
-0.014493427067707568
0.05544952947523318
-0.04660876870543253
0.04775855182898772
-0.04862370620846937
-0.0055366357011449145
-0.003271201200783864
0.009531515104937147
0.031710130852831246
0.05631279962872004
0.010001426999351144
0.06360847961448964
-0.025389416545156834
0.05493381514990817
0.0190680944746328
0.03460779572967305
0.06813118696221279
0.47899585865900757
0.9093169516095416
0.4197781300966287
0.1562122743213199
-0.04377184286338896
-0.06716335757968771
0.10508469087347994
-0.013045071785951982
0.12715610661168317
0.038680993182416246
0.06952546181519857
0.022263378339735945
-0.0007853224905955746
0.01564974331691333
-0.041043326515395495
-0.006410705035315935
0.012922038439708159
0.03198058996760118
0.05134769651712204
0.10788710887010217
-0.0500795378113458
-0.10281363194059252
-0.06751894642538385
0.0817556508912625
-0.013482372040051444
-0.078169056137963
0.05641680179198899
-0.06720801742696658
-0.0353217324326345
-0.02698742305400771
-0.0975677333861334
0.0013528694285068993
0.005438852122396742
0.08844737926105602
-0.08908109322985136
-0.07312471349603093
-0.06704948492509816
-0.07056036362213168
-0.02487953531663971
0.04956063910332625
0.016785880736958306
-0.0654201631386332
0.03417577664712477
-0.04855299186781266
-0.09031757007533343
-0.03064214843011062
-0.011433911607445578
-0.08187850282171293
0.09853806008992616
0.010174175039072211
-0.0553562608829446
-0.027610019921824193
0.02776131619222444
0.011624405520072795
-0.012349007860729812
-0.03629709312437094
0.022936780191510353
-0.0697179195355815
0.06482437508355189
-0.041955680059575666
0.03863405157824018
-0.03481060562949235
-0.03520372551298678
0.029481653312994568
0.018573657365851794
0.01059858422676298
-0.013692149031388438
0.014280609277983226
-0.03650970597729844
-0.07108404845711579
-0.05132725328092711
-0.007502827515688435
-0.014519721018187222
-0.03138409205386144
-0.0033707950998633895
-0.017896131307712563
0.035965071392579366
-0.020634114027788995
0.009961278519309946
-0.07433363574566484
-0.01335387434875354
0.01846015819832029
-0.08617705685086385
0.019742626701905373
0.0030947794595161666
0.0973723656329869
-0.05248694556699013
-0.020116511624817427
0.08053265861883817
0.009709124978211305
0.014548377962449744
-0.002581221701060489
0.009273937732154387
0.07059647941659242
0.07941513417713164
-0.005246801860492195
0.04437005145129698
-0.03307584555089385
0.0782431965359374
-0.03410432296675205
-0.018264196716189354
-0.04206447342715428
0.06839966365778415
0.05209727602274844
-0.05067039063538808
-0.029105598934832246
-0.03998823646412804
-0.0722602060058726
0.05466117835061877
0.03299214882686034
-0.047847484866870536
-0.008578708770808427
-0.013158782096064463
0.036683286634723554
-0.0027334846648592323
0.03742197278480576
-0.08414566740933867
0.044324390027279385
-0.0059073136887952465
0.02252379139254033
0.018762050239410327
0.06232966800705814
-0.003627829390886433
-0.05967837669475953
-0.04132188193966202
-0.02183007737235722
-0.01425182495558526
-0.004869732229377199
-0.07246536789419776
0.06412755334165367
0.08522736586554772
0.013830344507896653
-0.011952584915502747
0.05836022883554586
0.03252476114866137
0.0019430099056129174
0.049416512993393266
0.028213386082590403
-0.07228109552627016
-0.0039488351168839725
0.03994920287569132
0.01838598672139236
0.04256801762537594
-0.004523408483570901
0.03140591408220996
0.009672297462814622
-0.023205742010865046
0.00483407218846048
0.0957467809858679
-0.05841424762875284
-0.010801565962159441
0.008532764653549822
0.04120685564534293
-0.009137616251316425
0.14497240847337076
0.46075644750649136
0.9920254253053692
0.47199791161883137
0.1316343665394401
-0.01968461613215163
0.0961043559082976
0.03509124007943585
-0.07499135853025173
0.0030171920341514305
0.03739305452273707
-0.047509533493252314
0.039605158155762585
0.04268104006655267
-0.04501508937859895
0.024250623690660607
-0.06189134512390131
0.04242044626340963
-0.03229154810080118
-0.010212375179822597
0.027872310643902116
0.031458414560156044
-0.0825260483869306
0.011109468881004177
0.09147190287556357
-0.08555818254964204
-0.045299478179887394
-0.0770492582026969
-0.07492094150955955
0.019512242187102513
0.02174058909988977
0.0219967176358448
0.0026893541299650037
0.044241455368047605
0.005415611709223746
0.04263188012088579
0.042034218032656015
0.05532319723284845
-0.1033738302087373
0.03098708663930598
0.08078232875231245
-0.027570826716524256
-0.04928014726913415
-0.00636718984887895
0.11082488640000242
0.0024225081671116486
-0.0834686606506043
0.11952672263835423
0.038241687925744124
0.027469746101533656
-0.0325066014263162
0.05407555933794807
0.038011496493503424
0.08095843691514623
0.016183117623959877
0.031124451147454893
0.0036582657993390593
0.0176373675070022
0.08410700376597409
-0.027400680747559615
-0.06522648497493669
-0.08641599868891231
-0.06516014237366141
0.005993694160173162
0.0039042172593293854
-0.021013986633856972
-0.010133612369121263
0.04353815287279156
0.024220484451530203
0.05535231832342791
-0.039954956648810054
-0.035867300625756854
0.06428930589264807
-0.010876315512754375
0.035730281218809626
-0.029454234666127156
0.008968630033507551
-0.011188570627075066
0.10315586629328649
0.0072258960647772685
0.04263140687699635
-0.04485515285250044
0.024353935380714703
0.004238635256786786
0.0036429129523647026
-0.0501814238210681
0.024587951802650804
-0.08510198113565408
0.053811109256564044
0.15228919447771064
0.05204534972177447
0.05789641408106493
0.03313062380422805
-0.028986914954519355
-0.03765701342970344
-0.011827138058177006
0.06815680835070231
0.03657128292446732
-0.03175754299206628
0.05318538253132587
0.012204112081739934
0.02373932537209655
-0.08690990332457664
0.012174345105443397
0.03222042926423874
-0.11699451922046106
-0.08298847986920492
0.0007357651834665627
0.03815197762703314
-0.0323987102477743
0.0050116523977553435
-0.006381690249694028
-0.05144541859182949
0.048975810608558185
0.085058555490102
0.05076771483255165
0.037403886673368074
0.031179404597049633
-0.018816398140770102
-0.014861167048203554
-0.017968774178971875
0.02909854535006653
-0.013190538335858804
0.0589568833398485
-0.07830273826878802
-0.026911149374147902
0.07023336094868259
-0.03624831053188547
0.036166046544386744
0.009754442418852698
-0.11004416560792395
0.08175591226286356
0.030079174430792877
0.0022402161952418307
0.07704205492464863
0.07065572857301904
0.054946950083039216
-0.1450197405332759
0.08632830033777572
-0.0635812951861251
-0.03951366076686856
0.01957936182947722
-0.08174541493921222
-0.01909441876342621
-0.003478185588180102
0.004670870149528817
0.0839053006177304
0.09653745692836178
-0.018142520665036424
0.03808306557350472
0.0574533330337214
-0.05833699674162797
0.041192384311619853
-8.738759928243192e-05
-0.019446663267704542
-0.026687407178697026
-0.08797710270928308
0.008713709917775377
0.079997874383478
0.056903467716389954
0.47888327896941607
1.048247627620521
0.6031139541356352
0.10226147611436204
0.023592085336622555
0.006177785016937121
-0.00014855108292481664
0.05513871914771295
0.0360982382126255
0.06384843259474131
0.004126596931446751
-0.020185513911859954
0.05938010248295005
0.014497633033115362
0.010248529618693736
-0.05617279293796972
-0.08850001687131154
0.006779652904938933
0.016502744843158532
0.007482612360591014
-0.058467945708868055
0.05725141649057902
0.012107650022944028
0.08808610787456506
0.004383522870490605
0.008954523427917636
0.02927840573338656
-0.10454494402206865
0.021157593692959616
-0.024797336433493588
0.029977246941691956
-0.06527530595511746
0.056575502704526485
0.023314863594818328
-0.024541215932753217
0.0314965360994328
-0.0929811261663866
-0.0027456140753535038
0.03003762078249905
-0.03777293267465573
0.010544624410658556
0.006408076835109936
-0.03889559598344461
-0.003619530791753696
0.038299732111557766
0.05450301031311569
-0.0244965031496195
-0.11167981545463812
-0.02242939558198276
0.04290411681800769
0.010976951284048124
-0.07503632291400983
-0.03282929341301979
0.013015302623922007
-0.056278685477958126
0.06817908499979851
-0.06586883150256527
0.011693871594829264
-0.04329512016646851
0.06110189954527191
0.02605504395404117
-0.08129803763553639
0.017622733284160183
-0.01980152151750393
0.006966379068527384
0.038560320072615895
0.04039468977352995
0.07856449625546932
-0.04675030312692954
-0.05770323042844582
-0.027173536789577075
-0.10158854350695622
0.02111441969464844
0.035996007794265004
-0.013790557061293195
0.04812871793372125
0.016607363957936837
-0.060347874889364654
0.014078251816720828
-0.033618759373781955
0.04818807889741536
0.06869477321808017
0.0031593005978831526
-0.007160890192518806
0.0016294426973902819
-0.06448413558367354
-0.0658725057813029
0.02813914990497481
-0.01901775527215278
0.0352327569375871
0.021410909011016683
0.11563857596542884
-0.0009710121825555611
-7.058264704796371e-06
0.06506202958784407
-0.08192474001165005
-0.04151653122359166
-0.009397238352269934
0.012567977625330663
-0.02636682440343989
-0.06536256993270644
0.04525772742930173
-0.12622441135888157
0.04098518772219217
-0.039460756984771715
-0.0970431640244948
-0.03819835215170724
-0.07495249317588665
-0.1064519331484432
-0.004707918288343102
-0.02348677828398335
0.0618694907044132
-0.04726105477880537
0.047404416049498306
-0.09789552955196865
-0.08464253591180734
-0.09921849892965079
0.004052388265990301
0.03587879694993308
0.08452385243772105
0.018180452295813724
-0.03391639457242867
-0.11136988972690827
0.016531875053788888
-0.007136938955724765
0.11951594042506626
0.0062837049965508126
0.006803333979671142
0.04803216462138077
-0.013282941134243005
0.00018033787768940177
0.014385171799913998
0.033847110399554965
-0.029467351781951725
-0.056155943442202844
0.00041622463631686
0.0999510161486648
0.03877769919555957
-0.013474829466244355
-0.02333358371095922
0.017225858497446688
-0.006504327510034925
0.08551242091638216
0.029919714877509596
-0.04470953986552044
0.03184800550503537
0.038614690736775606
0.048395130960632526
-0.015372923783482312
0.026416802757878596
-0.020298299079450122
-0.018812607730887648
0.006137984734570588
-0.009407600341716721
-0.012775314835060747
-0.019154052962498464
0.13782475156133692
0.44022147050502236
1.0484063064231663
0.5232690481710892
0.08677283172354686
0.05073637390703605
-0.04090549388044894
-0.030907119411095363
0.0221212289067823
0.018425146910588795
0.07369591826437151
0.037308688484140935
0.08882347505786348
0.12050040169097963
-0.01674076641344139
0.014465756920103021
0.028657318433961354
0.04011668266325925
-0.013099863440773189
-0.0459120775303081
-0.04440437951516116
-0.010081222054991124
0.03754128398177797
-0.02912920915051001
0.06424385373122016
-0.045084141955149086
0.05421724472925854
0.020012992194584356
0.012038668211515747
-0.01785941915591045
0.0477163956303557
-0.08183611423637253
0.030731218786156436
-0.07748943326212042
0.04660981263792751
0.00439882465388492
-0.035279497636777304
0.009880652020793045
0.005628094506778085
0.03491189097983623
0.07627908823924227
-0.0036906437397829952
-0.0020379319719907637
-0.06247547005731616
-0.037110249147146966
0.01741033392857493
0.044944207777076486
0.024691456167973764
0.06329424603615884
-0.079583336957874
0.0016633627480937708
0.012881819643531462
-0.0173513896531405
-0.027067715610349864
-0.020119296306522025
0.09981116986938253
0.07502695111748453
-0.034759764615978905
0.05544884799034416
-0.027299298066096347
-0.03243522542250378
0.05170121489909797
0.05594207649388844
0.010420779011050076
-0.04975463746927103
-0.00987972766366692
0.008372849154935599
-0.03899814282600517
0.03731823682778939
0.06671881295299052
0.03278636499047876
-0.06567378986802563
-0.038460622370624795
0.014548936375250524
-0.05055442108670266
-0.013088628071375927
0.058633404083418376
0.04218491646676652
-0.021235627475420047
-0.007801563063318484
-0.0013392477527742292
0.013952257338771255
0.02463534829386528
-0.025359256938169233
0.10776882688973854
-0.001708487925344305
0.08278748832796964
-0.03631449498186597
-0.036564993665019536
-0.0406772956637453
-0.005474191086088286
0.03464111752994904
-0.005937611612804018
-0.05477037174507891
-0.036583475596612056
0.0729133003517189
-0.056871251615215106
-0.03241246451764583
0.03734665429103808
-0.0005969494701387648
0.023436256715612058
0.025903428422262773
-0.03023940995706478
-0.11688635923684548
-0.0023180677907733353
-0.007706509423912771
0.03291132984369689
0.031259893569986506
0.014921868364705904
-0.04836469877244016
-0.0688392881275212
-0.020928807048198567
-0.0790069624230046
0.08171155279588739
0.06180662829970995
-0.05961416289463376
-0.059613227621973845
0.006556896426831462
-0.03728533620152914
0.017663784996655708
-0.01458025296552627
0.10953949870153984
0.009040790833181421
-0.10937573252936134
-0.031072002480752498
0.0695729001089236
0.010450106122894598
0.006685550637849324
-0.09133554176621697
-0.005684805521502162
0.0073804683135341225
-0.04085202885492263
-0.030900294539485285
0.039279593820652284
-0.008905001560063132
-0.021687185095159284
-0.01185315612319223
0.04280810561980144
0.018959330162891207
-0.019004386168584506
0.0020458638956076416
-0.07295862921101685
0.09145255690659215
0.005935949953256153
-0.07843346214695987
-0.1276355948048023
0.06791580737365531
-0.009125707863754445
-0.025367650749168844
-0.11954645287255966
0.03737725118031265
-0.05025951798486834
0.003902387175988566
-0.027686161123518405
0.0836607207391194
0.4897001963132124
1.0120045945655234
0.5141908318832898
0.025291824997223197
-0.026904681298266044
-0.014616231965222493
-0.04542080453602905
-0.10630293569397131
0.005722635317594139
0.0922793753694694
-0.020830342885588018
-0.02747874199336416
-0.0160860043998614
0.003387514300777161
-0.02921531833494242
-0.07307107346425117
0.07176831429064792
-0.0300427206383948
-0.040435752319605944
0.015301569541722107
0.0027704696217687006
0.0010249441176693216
0.006275208966414203
-0.07226905339694814
-0.01479511681270073
-0.11232827499351089
-0.017926666046875716
0.08419886634403115
0.03347823234625726
-0.006694443035624183
-0.03219948081469991
-0.010664650350443255
0.07716029159917916
-0.04286097578961682
0.0062372984918824485
-0.000872457685443469
0.001970441865157475
0.03762826415702822
0.03771778278434303
0.01686218436828525
-0.018529170691636763
-0.008533461593464159
0.03525952925052844
0.07210483315919924
0.06042326411103496
-0.11441667282966679
0.045845362684470245
0.006895789553858978
0.024318186388444706
0.04182264624462909
0.03419252852263982
-0.007168645883433861
0.03041286019956779
0.023854968476310783
-0.0723237488989272
-0.066089433909189
-0.044520774408603664
-0.042312302099601455
-0.019209440320195365
-0.023056118207488208
0.042902411828796984
0.055851438701920456
0.007097488465400623
-0.08656946082556291
-0.018775359253609097
0.02773219138119484
-0.05865115478179528
-0.046261742515241275
0.07968289750480695
0.019649301221088843
0.0020253534345277373
0.1021406160555001
0.008277724433786736
-0.001299361500401189
-0.006950661099427576
-0.030492588440061592
-0.09887845661185862
-0.03272082485991224
-0.03945339781960187
-0.013287004526790559
0.0662869465509945
-0.029392893010348795
0.026214195147040865
-0.007663056242551917
0.023948863201991938
0.08224827672991342
-0.032694591111168896
0.09755466119766971
0.017193374605166862
0.028619516714080792
0.004275279602170583
-0.0031484283298447734
0.02362953645143026
0.002869569347226134
0.05098468946084024
0.01598585723360376
-0.046665492710432216
0.01402004163261944
-0.024711284309791564
-0.019187950655016744
-0.038869987981023646
0.044984236330204874
0.04832660138482797
-0.06464412410832873
-0.03163283043823424
-0.06122869092391339
-0.07271044543011473
0.04117734508727955
0.0024552541943983434
-0.02011199421572203
-0.03421452950611657
0.06634015826163946
-0.007130291516470936
-0.0030263728662552536
-0.030323957596561014
0.016996670365604746
-0.040989549241298315
-0.043694968923994854
0.04329713762973226
0.08242029374728838
0.025004199566954793
-0.0006816560950234594
0.055129580989016325
0.014328943713896217
-0.08960890705383862
-0.024239599817494486
-0.021843888591430174
0.02868761409426139
0.030470022966599203
-0.027208388405952938
-0.009031513893391577
-0.02807919388880213
-0.004665264205396802
0.09842544387958052
-0.05406165624705145
-0.04428335102204645
-0.033323222554336514
0.026658731996914726
-0.04756660882093069
0.0059485673296714265
-0.0825198410883787
-0.02162903042614392
0.006063530816143641
-0.0016863389217121234
0.002560436082176234
-0.03442880614395845
0.02483976213947972
-0.08384838704322933
0.028309232116520068
0.06063732828524814
0.014578249856937623
0.018062836734639383
-0.012323266866441588
0.01099969469330421
0.0158266545506215
-0.07001758081801478
-0.039334480670410975
0.16086988456078355
0.5286668799069608
0.9843904364581086
0.6000856538527057
0.07634469646713221
0.02527095692716809
-0.008068344042593273
0.02216498010143099
-0.024814624988411565
0.03329816141115866
0.10276456224095408
-0.010071299768603752
-0.0023924311844238178
0.015418942478939613
0.0491171768447894
0.005301839788333607
-0.035400396472926365
-0.05997367169194634
0.05577091968759205
0.04145762414282428
0.03828178042281258
-0.03877040608049798
-0.03653437730599437
0.060219191865324734
0.053658151661455766
0.007620100262571233
0.015934447993840112
0.05754589887099163
0.037791825683290946
-0.055498807589645496
0.07262879967006426
0.08889511925319339
-0.0057308960669365805
-0.009036490465841538
-0.019514426039833527
-0.00969434128374751
-0.03217436645314052
-0.0017102830666605496
0.06447289581609829
0.040425617005065105
0.10507508886869515
-0.12117313239542316
-0.01217050097826898
0.055087390295976084
-0.09559394745209013
0.015370254504103651
0.032927714984528345
0.03728181022585411
-0.09029263106878058
-0.0027078369099174443
0.03423396017435353
0.029196235734697314
-0.04625407584019982
-0.09381179547116301
0.10343656099472481
-0.032337513030759796
0.01778642443776944
-0.0160535601703051
0.0602550715822289
0.03932887064153023
0.07511237495197493
-0.024356581814160456
-0.0386403493587627
-0.05283040483417381
0.04095720828719926
0.016131796569022635
0.003475621567759832
0.0009053905232400717
-0.08442864365810636
0.07685069370036895
0.014915245542601666
0.10667326111609599
0.07292746643832757
0.028915914142220497
0.003922148470883846
-0.02858856339826257
0.038833833856606735
-0.03917898364296297
-0.05615719278865294
-0.045372629004544925
-0.03657526943829379
0.007004303401494855
0.07260000861255393
0.05412246531072933
-0.04096221833594321
-0.032607259915775996
0.009970801804119852
0.0014170232335091472
-0.032102278061963245
0.016680418485481973
0.02347938797573984
0.006091810773182986
-0.05998477036566257
-0.04152649549809371
-0.04680747930714066
0.01831952936605354
-0.045203644570680226
-0.004720453418402705
-0.02323269403582838
0.05383945448753427
0.06269748463005084
-0.035792996608653115
-0.02304129334380136
-0.06308208605805372
-0.04253858215046649
-0.003393499488228654
-0.017966995833432926
0.02979401259292619
0.0018254065923217532
0.15523180579446783
0.05576754587157101
-0.04853333910838528
-0.011933557404573678
-0.014231955933614863
-0.010399521545244803
-0.050373391536140615
0.03454712318645129
0.029304343196012883
0.06750794547427176
0.02719983159384758
-0.04957312144467133
0.043655312123755424
0.01936931303071505
-0.03151349361001355
-0.024537182818563368
-0.044493624832762584
-0.003759359865942405
0.013836495575127908
0.018647669596997523
0.022161371856321686
-0.01069969173526458
-0.007804089475684968
-0.02332729511009901
0.05446392570202838
0.009881892773732307
0.009488249707787937
-0.010490000779095392
-0.004070953705595601
-0.12303716555529763
0.008489810048046782
0.0560350687060672
-0.10451815394231004
-0.01124765882973992
0.08939969109509502
-0.0643942302580479
-0.07414330675284972
0.008482816311407277
0.02269898088476473
0.015384151660685111
-0.11421054525783364
-0.06382609746462689
-0.11174955298528721
0.031502586563754195
0.030591956788008495
0.05512124702982264
-0.026528986915546872
0.05509967257960907
0.46098561194309856
0.960188828117175
0.45064214793493473
0.15141364988870804
0.06400231114292468
0.01803223405924712
-0.03895666957722267
-0.003599606379050148
-0.002912917101745307
0.07166083329243016
-0.017647719269661615
0.09098791666321245
0.04149690528049959
-0.17887208071497923
-0.04234779430714734
0.008755443172969625
0.06706287620173278
-0.043483569124070885
-0.1440692578964975
-0.016524469262291907
0.009101337436004624
-0.02934861146060504
0.040259810863929
-0.09940688199987988
0.03658221851042425
-0.014571778350095935
0.034581344301025815
0.09195261413897209
-0.01242918792556695
0.005551820460587769
-0.09171718239854933
-0.06492549814054387
0.049456580738042814
0.051230301727477306
-0.009165631695382573
0.06698584348772187
0.061640936846290156
0.05715231883017503
-0.013916399267178085
-0.07462621277434989
-0.03269521175413758
0.021363445955011735
0.05792594204623472
-0.1115195664214246
-0.10391423873956003
-0.0621553884011866
-0.05043230924090075
0.07352374072913444
0.05688013570095268
0.05504492224452674
-0.058338664551260334
0.025556950796909273
0.11010807572887989
0.01159598473091255
0.019210468859510114
0.04188254707747804
0.022496066929896814
0.04077319447834392
0.033613100380094
0.08060738881906965
0.03266800397755828
0.011058788063540577
0.011754781328958755
-0.016372680011845435
0.017887796745839096
0.04149549642479493
-0.043228303931082845
-0.059735741358048135
-0.022868199184563894
0.03686409537142409
-0.06952722714257337
0.08639401577294381
-0.01467681381972113
-0.03007154674652428
0.043545758618327206
-0.052079406064103675
-0.015068626754426549
-0.03683792538602418
0.036206971063325544
0.058488099546572886
0.0369065502766548
0.002199227643359763
-0.007405911871736475
0.007738511772060786
0.03912841452775888
0.059108669012112015
0.032824370872134516
-0.04131476676250483
0.06601368856340555
0.041683434546456594
0.016962502344224004
-0.056174161856629816
0.03343903931623358
0.04618693965691176
0.09579695583897038
0.10034061274654862
-0.025282000794268907
0.0255684091920458
0.00819134016772123
0.12478821720821492
0.12975557317746197
0.05409023551411777
-0.01329095055395945
-0.0003197868702725076
-0.015733831309220993
0.029225874656090556
-0.05376427236950057
0.0014527787325634527
-0.002066692791032354
-0.03486576486111036
-0.002387967035954882
0.0017553454624591536
0.14728388532358797
0.09039829287630124
0.02198086482620463
0.062466326301102805
-0.0014175693368399529
-0.045162024314897374
-0.04262171488386943
0.045829236056444456
-0.0019030547188771372
0.047524724926567175
0.07470395013371124
0.0933333013728248
-0.07922278280448589
0.08845646153129567
-0.03432305539882352
0.022351632952548738
0.016817839701279806
-0.0031630519390217302
0.07037891600193617
-0.002776731952845152
0.05504654915100751
0.004780597084004561
0.05445120508735919
0.057612746873722656
0.0370763403459294
0.023900421591424154
-0.03804989700570925
0.0686876746863154
0.05598124919055736
-0.016610878613350737
-0.044325162709468416
0.043058887567249404
-0.028323734496289367
0.00941319372135388
0.058216013939948144
-0.02654857924329043
-0.03442248354677405
0.04210826817084322
0.08565308863465511
-0.033678066776163425
-0.019153794313576347
-0.03630680397113916
-0.024532331312521062
0.10596593866433641
0.04266878813749744
-0.04183563280346714
0.04879519805830873
0.01888522290612732
0.04525399309024119
0.4353892826078125
1.0692652023818778
0.5154868709440331
0.059461241344947915
-0.010121232600879305
0.06256849434750603
-0.030674090597499024
0.031296221151312656
-0.057184934341070574
0.005630727044034051
0.058581864416867906
-0.05478735212876963
0.05093512580689265
-0.03637194805587146
0.037573873807692934
-0.0651400649998084
0.0879062542398708
0.12096076064529632
0.05572601975133506
0.02043062807064303
-0.08255776385022233
-0.03126799873023728
0.07669759437698521
-0.08576438870710186
0.06307593620082731
0.026958605756940087
0.0014604538025695824
0.005488247981121398
-0.006867364775524788
0.03999876293532416
0.02255798318208509
0.01743925867767686
0.046133101433577864
0.025765208333336894
0.012216490754725804
-0.05607010815428775
0.03561937157704204
-0.0749866432039487
-0.06361438684351443
-0.003846875519575898
0.0002851812019918933
-0.008803174791522471
-0.08257883025795881
-0.0418287724637362
0.07926179268818356
-0.025270133038979
-0.0019181722492527663
-0.0017492247734229261
-0.01010982384694484
0.031691921809408656
-0.048256918774727764
0.02331876917804112
0.010898558221100134
-0.039095490286505746
0.06457179348261848
0.01579801565987611
0.09526765386160824
-0.11566191542399298
-0.05188987172618184
-0.0038112794497200675
0.09512987034543742
-0.036477168359223135
0.0038203212082518036
-0.046277084362037015
0.1272399254895114
-0.06574333590278489
-0.0745810398584049
-0.05736374164496497
0.03176196091668427
0.038750158217692975
0.06014472680074776
0.07303340616264907
-0.06547790030039209
-0.13361679525840833
-0.04414396045270338
-0.01997598573142187
-0.08519352300193767
-0.0703455005031254
-0.02141518012011206
-0.0018458867703683936
0.025874093289945166
0.09595234213878961
0.01583613962240491
-0.01631657701909633
0.021547997818888717
0.0033490457810307892
0.033216409519644
-0.009646661544008556
0.030537912006649695
-0.04631094855813619
-0.0023796220802511283
-0.036439798495947986
-0.0077915477780615625
-0.07298916188800567
0.10415481410428624
0.01823668210841313
-0.0033251722544059836
0.022889124829218534
0.09886646220340901
0.031735223069934974
-0.022280140754432607
-0.05884309581420793
0.0020167215900264994
-0.01104515670261688
-0.043710454176931125
-0.02380008291993069
0.008005486636606305
-0.0036469983817888126
0.0045148554189124125
-0.02045181087641422
0.04048539306770327
-0.06341153560239389
0.05103569653866602
0.023204558228593325
-0.031007941771565507
-0.04752533171897946
-0.010218020651728332
0.007382138594476302
-0.0653696283092758
-0.0018233313063754084
0.017563693539738492
-0.03096291596712706
0.03506268199951774
0.029316123088420992
-0.0790369335095738
0.03576267892876583
-0.006904292298222999
-0.008165917904421758
0.06167161225000603
0.0026246445988988617
-0.05939911390462711
-0.0020559188614366762
-0.11725262077738514
0.06731923025717214
0.07175251280441594
0.00408825157435807
-0.032120328311156576
0.0017409381103925085
-0.052384211571166454
0.05192397635271856
0.07706068246606033
0.0614120911072406
-0.005750603936120942
0.025623497181040907
-0.07429426711314722
-0.06342630565888904
0.019393360818913137
0.045390512530707305
-0.06351006954408882
-0.03376814949302428
-0.051250651833911615
0.07832233663384319
0.06685993886007253
0.031661280551473006
0.4253136166432371
1.0539729200314554
0.572680260387216
0.17540825871623258
0.038807403438475586
-0.00522192442237892
-0.018273757022437755
0.009535796456403487
-0.0637376047136111
0.018030180055227774
0.04005417188368974
-0.02466812114557129
-0.0623448545195208
-0.023374069785471935
-0.0028382627596204614
-0.04690236041808523
0.08946469840282281
-0.014603890111001017
0.0019923997546800807
-0.05262028034868371
0.048215899813561475
-0.02800176995013759
-0.0811112747235439
0.05974989997589711
-0.03809738553838624
-0.01142694900042368
0.028671761493521332
-0.01104016038965587
0.10341286505329482
0.02127422668378511
0.05000519086854269
0.03713378361194345
0.05180737377282342
-0.00693520767972584
-0.03208067497877268
-0.0036786231648726717
-0.07486247100863629
0.01802630013692142
0.019290208877497314
-0.05005540776411154
0.0320212274466183
0.0008141550626910844
0.09660280437267105
-0.07385102000211193
-0.041385526967515504
0.0060993939986243246
0.04560505431605348
-0.0023822632314402336
0.010513991686420612
-0.013786616454102937
0.024542453114587998
0.0023194223973641705
-0.13259489746944297
0.04011516024122812
-0.06683617992320906
0.0064471449129370004
0.015707635812029625
0.06795556260714804
0.09881550300882347
0.0549025310291865
-0.05159036163481903
0.014634173205976068
0.09017382145386865
-0.04236227085279638
-0.11333321462003593
-0.007917298448448599
0.02863605218888119
-0.01935881935358659
-0.029562932419575957
-0.03553272961399871
0.02186956766241292
0.009325943488630207
-0.01057952970362477
0.015386536021900172
0.003790443855029268
0.06880967659943152
0.0005100777696594073
-0.013909712214495693
-0.04670822956594065
-0.04208233101733061
-0.055751222214330015
-0.011047232866344304
0.056568006345714905
0.02035836663387162
-0.0019398611417385716
-0.03333871355078191
-0.04159066043615376
0.013558768799889324
-0.04875349620369269
-0.04977512433479485
-0.013510641925506342
-0.03174814838182328
0.032716535598127816
-0.03792207485899409
-0.01766661181030596
-0.0022280564617238965
-0.06841650883384208
-0.059904826531429624
0.03989730688432885
0.0039203006818984065
0.03827564754507191
0.04954917146242205
-0.014192682263487869
-0.050850057727826005
-0.0005196785189510418
-0.018244109763438675
0.024464609883725126
-0.1037232131479269
0.07213339483816628
-0.024413210452382317
0.005113414356957687
-0.025518227249602662
0.06366307033951395
-0.1090268532842256
0.02803712106587975
-0.039214289393553405
-0.04146407398070391
-0.03872323644208295
-0.0559229254472548
0.001281749434178991
-0.12563448117817463
0.03610090274396748
-0.0570592872943146
0.025045549116078033
0.09067393987789414
-0.04471784929312739
0.009581569368134653
-0.015265442965262853
0.036181476257911536
-0.012394657686560149
-0.09198432887051416
-0.003956555073707604
0.008662272142504814
-0.0030995338019499667
-0.06674721568087776
-0.01719516375762829
-0.04900003547723209
-0.018454658692735573
-0.03206722503417583
0.01320547889929574
-0.03534053218114962
0.005006012603234928
-0.004121679238572975
0.032607609795037344
0.031226463636499
0.030462618523830195
-0.05749854458358861
-0.01896436814101682
-0.03883676715617681
0.00473840459013747
0.06027599258621013
0.035924019816805215
0.09866965260315481
0.056578461663989776
0.002668377654878527
-0.006261545813580328
-0.03542955403539857
-0.06732736124119765
-0.050173615661429805
0.1433688137223577
0.5039569856060974
0.9539664094868135
0.5032739017316507
0.06007873028716282
0.0486988820967869
-0.004958509681338173
0.0799979215540485
0.08875870256158443
-0.014104540353039874
-0.03229826494175513
0.0004994106513401042
0.029540296446931676
-0.0167534618493163
-0.052877320710111086
-0.038250718499592856
0.05258850924593152
0.0737123686511689
-0.0022848421720482208
0.016727637976070762
6.780707891606597e-05
0.028402425354167583
-0.051139139460574204
-0.022561808439415597
0.05960433169979933
0.05317437598300911
0.12667112460714644
0.023683118051264794
0.02689852585536817
-0.013637381662224746
0.02337246268380974
-0.06007575414169675
-0.025463296226919424
-0.0005797957608212505
-0.015387401850961595
-0.0025048929518314365
0.05075981030520173
-0.01371322042840499
0.08045113168336543
-0.02670056364839122
-0.048999079454562694
-0.09383967066297602
0.07553521816506963
0.007722439102593414
-0.012952764566072153
0.007503894907404277
-0.03664549446863532
0.08097965022585908
0.08224054123158706
-0.011660844606390318
0.026919676059447895
0.0984689763338786
-0.025868347830914462
-0.03082638352110488
0.07091949422783082
0.014889304908086314
-0.09035669960340363
-0.04927294518004176
-0.05872588676331845
-0.04313670510890866
0.013758418660823985
-0.009572405542458643
-0.056751432833118926
-0.05042538232974634
-0.14725621320178403
-0.008823791252513159
0.022265760042030708
-0.049773520175683095
0.05107799958371302
-0.07534232250313672
-0.11969550646782763
-0.014449994203450701
-0.10747462482372248
-0.024308847459990655
-0.05271757482836259
0.028472414022653627
0.012431090128268797
-0.04202590400714744
-0.01703953608889706
-0.04449861588442679
0.009769959208523285
0.012223443033014723
-0.02303504297628898
0.029728153545326527
0.06286240469338523
-0.04051272271867467
0.009066048233324974
0.06655383305972871
0.017549528521560585
0.01414968234161154
0.010177293368041457
-0.07044906811352268
0.010961184748379687
-0.06267394770784257
-0.04285089830378271
0.006139708558784013
-0.00469561360276262
0.029589921974851448
0.06765336262087944
0.004415459809513542
0.06699559354031519
-0.011570107823023996
0.028815224890271236
-0.04105525576238511
0.002966917397091564
0.018442608786711508
-0.05178256647098766
-0.025639140968101333
-0.000564207280484149
0.10616611515479396
-0.023865887510084175
0.0756334897430768
-0.016341464376433232
0.0603980028514325
0.028593228224602987
-0.025044618461141685
0.05915356808557581
0.05944543214210453
-0.09945962107198995
-0.028615220960704426
-0.02574045083301695
-0.026726287157895892
0.0616731588392358
0.11239339955280861
-0.05878917679361842
-0.028554853656199038
0.023064576033929862
0.10940838021036947
0.016770326658945664
-0.014056939913494673
-0.05344046844731879
0.040751887380795576
0.0048813342389633
0.0029491375842062104
0.04513997374404301
-0.060241036770709834
-0.05664100348017873
0.04831174609337002
0.04845754500446793
-0.01069092034870759
0.033716293932479456
0.05301443247184673
-0.02582626503827161
-0.00028495185553079706
-0.019850980799830165
-0.0334374551178884
0.05818092920383116
-0.0022787667199786884
-0.023615164665323766
-0.05271026070321564
0.06252356074555573
-0.02395738278210803
0.05677404219916449
0.027849733804777555
0.03260031312359448
0.16696071254675682
0.563707868509602
1.0519285154825013
0.4699055295782646
0.05842102340548722
-0.06790793395723135
0.024949004809460662
0.041664925553594946
-0.05088033867411589
-0.039333858659710015
0.05757421370037341
-0.030575065099477466
-0.008864963741806899
-0.06990613700809876
0.024786233181072512
-0.0011658587064865495
-0.0001686460769386559
-0.019567678192771304
-0.06775979372101919
0.038227968004900297
-0.033648421974417884
-0.09531966495222949
-0.05286021272050532
0.030858370124026726
0.12404343983482423
0.09986815793447303
0.020822842151695067
0.0620762958562093
-0.009098382137598565
0.0035243560729438664
-0.07129784066650496
-0.0729778509345018
-0.017856159067257172
0.011385925227394133
0.00883316365040705
-0.08409141230629973
-0.05729200253258698
-0.0462815674482262
-0.013886639509616487
0.002417172602327349
-0.08985979626200409
0.009552945562547668
0.13971774033022374
-0.07037456217609707
0.05914559518314593
-0.04394256873486499
0.0367537610487043
-0.012401662811214817
-0.008360047290527022
-0.07970610207269238
0.05266699397225616
0.04082489109420264
0.003248693759539627
0.07470579671776681
0.007641903582331376
0.15797815499183587
0.017505928338613346
-0.11308398228555833
-0.06584008900691252
0.018620033088402186
-0.09483705107053358
0.04385353749815397
0.05357692655009937
-0.019917439516823725
0.0929984154087506
-0.04489965050500199
0.03527170028590638
0.028474357616980018
0.017614063257108237
0.026514931799944443
-0.10749901196512057
-0.029018841459827957
0.028063438864268583
-0.03455573787261144
0.023644794038978293
0.045143572410733815
0.01485462774473833
-0.029011276149157494
0.055064584045499
0.09183469124406578
-0.11321874189330372
-0.04656155646082283
0.12925226144951174
-0.06719724038156198
0.015728187079051423
0.015004952945366684
0.08431796706545702
-0.01602258775294486
-0.01391398869298327
-0.056761157718122936
-0.0028895268313829728
-0.009436891252279431
0.005636079568513136
-0.02671950946210368
-0.06877322713507673
-0.056710918490040334
-0.013859935670725954
-0.08858028359809782
0.0351429798701947
0.014484721158378039
0.0770032498084786
-0.04693246621660352
0.008352116428080735
-0.05271824754250958
0.031158325554336952
-0.08109004187104851
-0.014890693886597165
0.05889827073253645
-0.005775949689083188
0.10174495270275825
0.015837671667191838
-0.0073108266882550565
-0.07369835341120377
0.0296893201865909
0.016297139073092007
-0.010485735228829219
0.027805048268543044
0.04017323062322517
0.08672074218414338
0.005184671268194134
-0.058527029702809236
-0.014701913495735389
0.01229305451691659
0.030109714765827734
0.013224160869671193
0.03796021572763872
0.0024136724706029043
0.026189176686140354
0.01727289940473935
-0.032279949231963055
-0.030564916600834158
-0.021404654003168412
-0.0400908504698734
-0.025234614894600268
0.016041820214822394
0.08489543303232917
-0.034381132678902825
-0.008307955797171243
-0.027756179469790393
0.07798042114849182
-0.04177840093640822
-0.002226427740891159
0.025622769815768637
0.03145312906180965
-0.02749111391860696
0.022754867219781424
-0.05572823468905594
0.09113522207761804
0.006939160603050565
0.02659610465544321
-0.05951585073453289
0.03169415079112597
0.0769681614642965
0.010468916301350578
-0.024522897679518152
-0.04959359353534031
-0.0014505021684347074
0.10191300155926063
0.10018457955898817
0.4334945215933615
1.014344844116914
0.4622756530018471
0.07725792356034722
-0.023397660629573214
-0.16032410840680084
0.052423523030430796
0.009124006248697625
0.04931548589381805
0.03560121829238613
-0.06468959565210919
-0.057756333207842084
0.03585016123984741
-0.043668492988849415
-0.06892041443248191
0.017884578628626586
0.04807283654389144
-0.02673513950051755
-0.00474384200139745
0.0535257399936857
0.05926191458825158
0.031406022657988114
0.08676224215615114
0.025340030026818824
0.0009169574531473854
0.019486959327228114
0.0972510986156539
0.029036057361918607
0.013554957178080416
-0.04390488653161879
0.03734534762082973
-0.12867730870448385
0.03305294330680841
0.0057722777887164725
-0.0510608552221567
-0.02305804704500355
0.04517036950100919
-0.03220959596573133
0.08829605407470116
-0.01604009670933827
0.023126533455563647
-0.04457907076929341
-0.009572202347011532
-0.03940379810367678
0.03165743530877846
0.01015819490502314
0.08974646323493699
0.011473482159830857
-0.023043564300609363
0.05688469977989261
0.037144669221379135
0.16543967059971987
-0.0037717118227338243
0.04610111085583653
-0.01975944409578516
-0.005969188997649563
-0.09910095760554066
-0.0053376478644336115
-0.04540104349694195
-0.05017340725911257
0.00330402202026437
0.038853500939135366
-0.07049557236030138
-0.04280832238984842
0.01564645776367251
-0.01521517180126516
0.027188785770056026
-0.01812634739303023
0.02468028645558452
-0.015417382308812448
-0.02850845105811683
0.042212517135019174
-0.02590384354943633
0.023080054194818428
-0.0032868266032658857
-0.07875392634422734
0.032513313643875316
0.008907043259327233
-0.05182906470849006
-0.01059744156414097
-0.052761310220932445
-0.00882975686884777
0.04229813804823089
0.024404434800712645
0.007393253243969437
-0.0994512297183074
-0.01658722415768811
0.017518379130583458
0.06511670166548815
-0.004010067498371941
0.028981262794742516
-0.02739170439671538
-0.0004638292645556699
0.05497850492938246
0.009244750138280716
0.0572377621672752
0.043596560335950205
-0.04370300969079978
-0.04639419682683879
0.04131571953509561
0.07389073477208712
0.04080325613426536
-0.04389947067584866
-0.07440234627941243
0.005160725967880997
-0.015639126885607032
-0.003377331404746465
0.0323886559908526
0.008483794802755042
0.005150670446962269
-0.02519320902799406
-0.06869872764369682
0.0025017531349975277
-0.052644612279216955
-0.027521812854421786
-0.0030680379166083183
-0.05143162746446276
0.10313029368215461
0.05820507012691274
0.05983515370579985
0.009973297849906462
0.02860614831017353
0.03170734894545083
0.07645955629935047
0.01780520625465303
0.12149260914168594
0.011799566540903122
-0.01755533504405532
-0.11212887135670978
0.01761222449118359
-0.015494625764732501
0.01935904109494067
0.04899054129914759
-0.05280642918416787
-0.07613362158723166
-0.10525029973369088
0.026841406356903852
-0.03910260548541181
0.05489525745252541
-0.026599025761501634
-0.009059877936775844
-0.03308841035126555
-0.02319548267140628
-0.009462315861228737
-0.06726492637890502
-0.02298922371555145
0.07810993818202028
0.046301269010841375
0.0889500484207979
-0.05826486362417872
-0.010437686415117898
-0.0013695899100328896
0.09722746232133152
-0.016747138450660164
-0.06372448645371101
0.038644921055445175
-0.054570459427268805
0.12437020547654885
0.5513208094241031
1.0525946233197765
0.5096039621286651
0.07976249892889169
0.08357445598570636
0.07624316502105125
0.013379295006997388
-0.00034927356593560913
0.010065868617630806
-0.1135921825507446
-0.030917561400817223
0.00034523799953036253
-0.04735450477791284
0.020791390309193046
0.031202592592720926
0.03263448116655853
-0.02057136940104795
-0.05076091243566692
0.03270424393807189
0.031013439693099134
-0.08420203008285064
-0.004739304845154535
0.026479987529225642
-0.04666689132924704
-0.08234185131828879
-0.08508681192142586
0.0026822846936077043
-0.05738814253591682
0.033589522306050536
0.02891483487218346
4.5962971223125955e-05
-0.04953457456270453
-0.03348407396457931
-0.008242079430234257
-0.054558464593233026
0.013479350765394728
0.004297219161877387
-0.01862722738736884
0.04337083219447467
-0.04376105543549623
0.05327677753488497
0.021162666953596792
-0.04210740579259767
0.0400949162299434
0.002700812271246173
0.015016892835811195
-0.11927684409709301
-0.006948740754605647
-0.009126260936310207
0.0050343833504818795
0.0007523998489578906
-0.016788162226122557
-0.016848085275287517
0.023469867031086125
0.03049320089579788
0.0026935704117942486
-0.020352995563016372
0.05216490081919124
0.07069038024911638
0.008148421299022981
-0.050695971947679344
0.05830479043424648
-0.00010282193639567569
0.007333256907082065
0.009724368328209956
0.03987488503045673
-0.03787186991076512
-0.07175285300082405
4.654321721407964e-05
0.022868458132932715
-0.08832442082650584
0.03479056190885698
-0.1061209006206671
0.023483832569452776
-0.1142842468411063
-0.11283947811851165
-0.013136538457837306
0.00916858144248269
0.01605777720713254
-0.08317964057696685
-0.06142115923646749
0.04061974353936802
0.020976176002767414
-0.10767246545070341
-0.11782515646565442
0.019125835145499523
-0.04961333821220082
0.008271527275175964
0.08458970318938211
-0.004849261288547421
-0.04994570607769169
0.005329445355691182
-0.015611364161921944
-0.04289345725530997
0.02277626609067894
-0.06675848313532606
0.05477419883483419
0.044392015684178276
-0.05330515585733153
-0.02076162009393745
-0.0088110193749314
-0.009012643273130474
0.04046864917243728
0.0005387986554507103
-0.04454987768754016
0.012732377230813639
-0.0007043750586676839
0.049465223136054684
-0.0252992104166777
-0.045171060023476865
-0.10133138613605326
0.03123819777096202
0.10900509725429718
0.0433013477049998
-0.044060247300430316
0.010456588081147447
-0.0017655902441716443
0.03098210732473899
0.007982085785855422
-0.049468065084067925
-0.014701326525045614
-0.027006761579143362
0.04515818720258075
0.03240437824883044
0.0167127532538661
0.06456815996274834
0.0407740076173485
0.0745287086671875
-0.005650260465358055
-0.051026365654646744
-0.01602845280630406
0.010256139685745836
-0.03616703965601947
-0.051007809706834766
-0.010088658061850603
-0.001423594426497891
-0.013860922276337465
-0.024423758639679313
-0.058912642839656505
0.089172620302543
-0.010997296970397065
0.07697717749395191
0.12811797261355543
0.01804616296871125
-0.07242763988655496
0.05037823802155127
-0.0019156162723607513
0.023114316219249385
0.01989429969993102
0.02375962811462959
0.025991185018300847
0.012411754792917128
0.0194565761802791
-0.053494371438587054
0.046930716181778465
0.04987009983732118
0.18202016138987992
0.5778885973146245
1.0102112581048588
0.4642626570787826
0.1636801783072852
0.024056011091918433
-0.02731152390877924
-0.07267714832034326
-0.0758844092578428
0.008611894415780114
-0.04647616509906637
0.01994711881051905
-0.01347531251507721
-0.08228745348152851
-0.05955553437891891
-0.009092002561603545
0.01782900050341683
-0.11309023480854477
-0.05083198607739561
0.10680278491195694
0.002065369804665674
-0.12971552429360608
0.03317010010613462
-0.005406725069248098
-0.03487496192913414
-0.032202705337219216
-0.03580751890931142
0.05367942766468577
-0.009070656817731093
-0.07233552430222137
-0.07215134658101773
-0.0377427198405946
0.056382051044079375
0.038633639114878035
0.08734618592606846
-0.03671491117386991
0.0030354948917389385
-0.04088957087252797
-0.027935218597894235
0.06237272141061062
-0.04870538645906697
-0.027284399656478137
-0.007182522967288037
0.008514210162852802
-0.14181166354814065
0.01435137791296236
0.02308551474265254
-0.036592046133958576
-0.0290177904426707
0.01079122576301371
-0.00918991354141094
0.07135251925371296
-0.012321729914981268
0.019292865675777014
0.024167202610043015
-0.0313871895013612
-0.023763232801814676
0.010958511111736896
0.07819671531301076
0.039355834161386515
0.01892110356752978
0.035149455893282354
0.04564739196610506
0.038587388399457606
0.10249116029433743
-0.07475821268151157
0.1108503829434122
0.048863353103362664
-0.05763052705216126
-0.04708510664507183
-0.10455100571381158
0.02869136760192442
-0.07199698074698174
-0.041543956296679285
-0.004442872788212329
-0.10194246907856308
-0.017260570164419106
-0.06733557665895777
-0.0866651821157871
0.021296779510125683
-0.008641887711314349
0.006193270020480413
0.008502004943398943
0.0509969458114264
0.043589143024378454
-0.08014988621222807
-0.03386480121108734
-0.0049063977767992845
-0.04158443699364445
0.10719972913122487
-0.00031217137988197454
-0.014011116175364572
-0.02618349687142001
0.10727268100763965
0.024731863406780207
0.0758123767957076
0.006262473522973421
-0.06509300511328908
-0.02951227773425559
0.025376192794047393
-0.004666642654215194
0.044774851029971724
0.02107623960088488
0.05999888849381774
-0.0037250876884521293
0.08896552590080295
-0.04223760271518983
0.0004066401687312836
0.05751519912637946
0.03562327867770428
0.028207559587035344
-0.02110020247269169
0.0062016499557256966
-0.025005574874186528
0.07294706501492806
0.06715011858194138
0.17211809080533125
0.09981327656928354
-0.08120839406529062
0.0814364867253788
0.03676271589361969
-0.09685591280216539
0.06770775220722478
0.03673943701531598
0.01400178365590949
-0.04952072739758242
-0.05606623335292115
0.0527816602695109
0.045895284287034904
-0.06300543997771067
0.015158645357776057
0.08397899052020397
0.06271234079740558
-0.027467370388449742
-0.030383688085010366
0.013298964429011767
-0.0831974591041734
0.030716431215335394
0.0001993955283599305
-0.00673133551160577
-0.00037227969481033523
0.015531062488824732
0.0681547994193305
0.03551607412674398
0.006278367083197562
-0.026360638728524313
0.012121247998548334
-0.04021770737306371
0.04461780141439145
-0.01188953945444537
0.051147812895597417
0.03367632344843289
-0.007786540683958349
-0.0014741044623782056
0.06580909240738216
0.0023390192467210844
-0.007116876117886555
0.008208318399739357
0.06397384588568247
0.5970369838466694
1.053169231621113
0.6452350316577221
0.05525168027223051
0.006210040312691234
0.025616236341273593
0.02029913406965302
-0.017591037037179628
-0.008567547412019646
-0.041970513850254215
0.01649573522630595
0.022996934589193326
0.006961443427917483
0.005070556379070046
-0.001468841291302177
0.06572655919235647
0.015688404480888787
-0.009486560731585554
0.056328432266455966
0.046489891893139075
0.04156861265815865
-0.029946024602168598
-0.06431532090090421
-0.08244047739488712
0.0249888822108906
0.026014686087651246
-0.014313690163486173
-0.029935301255684044
0.0032519519060899373
0.06365823117801225
-0.03588012884705646
-0.0016171434748013835
-0.034865874390172656
0.02432306807268992
-0.043902556037942124
0.012019193947523998
-0.02306434451299812
0.03295865019891786
0.012074003564576694
0.02843012585883561
-0.07933336767785361
0.002066315324414499
-0.012598622649307232
-0.0019718353555805254
-0.10938384414539706
-0.12456273229659434
-0.10278128806321783
-0.09677937566577578
0.023927368786641107
0.0678496128524391
-0.036719908171442606
-0.03910070991690538
0.042103718088051974
-0.05270451850607012
-0.030363222191446795
0.022099391500894724
0.03093028104013756
0.025881633416337497
-0.059420216446175914
-0.08822002843856853
-0.09085679987369642
0.02524688645548641
-0.05180516143692324
0.012209315988447246
0.04394167006099407
-0.05051672264066866
0.004538316970375368
0.06701915708590112
-0.0035699183426579338
0.038138293708371185
0.0094185234853397
-0.060744316518404354
-0.07811460722448665
0.051354101837996075
-0.00534592320129481
0.002541851793791006
-0.0076613809484769166
-0.021081780501663747
-0.09532976862390748
0.04311910349680707
-0.003502961616205272
-0.02635840837980783
0.05459313382596079
-0.027655529782114826
-0.05043611003587642
0.01612883738694875
-0.006804513871874498
-0.061580290347591805
0.030643427819105118
0.095533208155402
0.02168986176145219
-0.04153498187807651
-0.0036502867714878554
0.0005415285140252252
-0.006611372218862055
0.05052322369646425
0.011564948025173622
-0.0841017275372669
-0.08402870503704249
0.03509098911719729
0.023129183576865105
0.03279753923982589
-0.002768044820277868
-0.009248066228416915
0.03633714513865189
0.07330980163593993
-0.061913317621787506
0.06806456641120706
0.00616095177422909
-0.04347830558112708
-0.017625406307926188
-0.0004217162324605505
0.04150936175569046
0.05584445179781694
0.039239686053778026
0.04278376436713691
-0.07257776332092818
-0.09860564858965881
-0.005719192502064251
-0.003358997940613286
-0.04117451468982086
-0.020350965253046943
0.05933998473882171
8.416817711062663e-05
-0.023397785335920213
0.0016837975869834028
-0.08258867889362657
-0.01020442828052167
0.07014070270554337
0.08434393090985495
0.08253161429315606
0.007325304364959379
-0.043769645951504114
-0.14874535117942178
-0.14018138437368174
0.028763708044377997
0.09473688087279936
0.02459762056857643
-0.059860436824983376
0.011193853952354702
0.06979584502760586
-0.021844747531692778
-0.014900121112964
0.08348616336560613
0.04063104982644658
-0.018325688445660206
0.029654488441146338
0.06442670719925574
0.06908328243245064
-0.03916192876956088
-0.02840430144856436
-0.0075750634951947384
0.06697754387851755
-0.032949612471865244
-0.0239331551399099
-0.06499273616407335
0.14318098348833033
0.5206268386731789
0.9972375059013929
0.44096310601668265
0.08247614361985836
-0.059650384316259734
-0.06808116077275704
-0.0536787467021352
0.02782704223975648
-0.057361891404590915
0.055537557873395586
-0.06611382134965492
-0.03379711003833802
-0.09516405449582206
-0.0032892533609362347
-0.029505357042945865
0.002676284378903787
0.05187649792519771
-0.07509806401022645
-0.09366877604349974
0.0230650551774133
0.02210459087258508
0.0016352883050708028
0.010934521647003944
0.020347647904792775
-0.06897096059170722
-0.09850726003835836
0.0723769990895388
-0.029371238865108746
0.02361437907169963
0.037435985862775883
0.05905721271124292
-0.0036612481820086536
0.01985210242824556
-0.027163177046580396
-0.0009830860648978874
-0.021526565809364673
-0.07740576603125633
-0.00562307337169461
-0.012709746342267939
0.043698700741237204
-0.014287189377369478
-0.006748307635589289
-0.04997317554380026
0.057365049617920764
-0.06287907529032379
-0.03492142063313565
0.03851853167303452
0.04294639435185777
0.010416299012081187
0.025709095605939508
-0.06559868662381335
-0.05853632543310536
-0.04314082667997668
0.07035380029094615
0.021145828669090486
0.1124931922015092
-0.13007387450452454
-0.028295122470310397
-0.008371646961318384
0.06153785931275796
-0.015379407700952866
0.0617504064674972
0.0015537978361152942
0.0007337479110718887
0.010416204142610705
-0.00598570977992326
-0.07756069072313937
-0.04194147281582071
0.09220002234683575
-0.00587880058586699
0.018466738847872224
0.021242605297693326
0.09415608661717893
-0.10028936131608963
-0.08352360562499898
0.0352596525246314
0.0005112312494363786
0.05467966766701352
0.04750099412422689
-0.0718469662431553
0.027041441278533064
0.09410913877905529
0.007525297724025913
-0.0054464196894201955
0.022685665048395105
0.08803250571607757
-0.023692898545974703
0.001138577804559587
0.0005529185316505608
-0.04087904630580688
-0.017593294415545014
-0.020369755484419227
-0.0201409556635528
-0.0026848169911733947
0.05145882939122958
0.01730580869958721
0.034521727721253434
0.05766019226592855
0.0683673385353583
0.0033137224547701775
-0.03120929750358832
-0.0015204922962794543
0.020681419143190077
-0.0708641097957702
0.048737607800466425
-0.04106072899983229
-0.001831368183155746
0.005370046198449503
0.10211541562511868
0.033767523547354426
0.004105685864059959
-0.009630859754254505
-0.019361458198105502
-0.10602447574652207
0.10929099606620503
0.09163326805908331
0.02363670299231775
-0.06235913759776101
0.030275747098195995
-0.04422707405453725
-0.0007596302749556717
-0.07299286480167887
-0.06638062690740196
0.03458332340665592
0.08598538121480209
0.0930259453493938
-0.021578045968955056
0.014381607651142134
0.02179647914536272
0.08034565990075515
-0.01778142096236061
-0.03449173986729493
0.02713416092743587
0.04766825995743191
0.02544163178240035
-0.01705536620869407
0.06408265381101431
-0.01733046903900612
-0.07015429826405907
0.026382468262348763
-0.01250286275552272
-0.08191989952125722
-0.049477662254272255
0.032803141418826315
-0.10549399569802503
0.040202419010092444
0.0466494723174832
-0.06051533197341337
0.04031132558705181
0.026970300555729954
-0.0019210040981950671
0.024887946470826296
0.10577931843262944
0.4874679605201774
1.0572169613968188
0.4965579910770133
0.11567374470953379
-0.019924702936588764
-0.04464419533255552
0.09082734921539615
0.0699705492169525
0.033234394157741924
-0.027804876965015397
0.056027329779117174
-0.04419548039673527
-0.016931890810004926
0.12962935464635134
0.04568669985781837
-0.07475726560325344
0.01246999448615159
0.018349143281081736
-0.0312681864928578
-0.08986625513235824
-0.04498504339747748
-0.021532064248949045
-0.05427749295165185
-0.015174535376321872
0.007991371547200646
-0.04373821200317948
0.08563954360860404
-0.09011828461640886
0.01650814767101674
0.05997260425157838
-0.06717108698294216
-0.013021067941878413
0.12466336454978649
0.03437100849256992
0.057029779956952
-0.010242534941873898
-0.05960195714201161
-0.017985423833252818
0.09013943932682597
-0.06664351220499143
0.04388469305640983
0.014874393405769468
-0.05827728382694802
0.013712556864468607
-0.007956768319778157
-0.040918234205450765
-0.004316171445588288
-0.015060858840219446
0.020620802504549614
-0.005996804605145042
0.06349262984074211
0.0052155000919192574
0.04933855735382445
-0.044109065082473746
0.07955524897832883
-0.024145237242103032
0.02015120096096286
0.009780155965311082
-0.07417326498970987
-0.11185784997516734
-0.03473618641855985
0.018861498699039095
0.08608434540063176
0.00972540928727643
0.03876495958686581
-0.03214435013805257
0.06097773857332557
0.038025572883026215
-0.02604861411550435
0.03057409720114551
-0.08279368399109094
0.05894613429239235
0.03798751388332076
-0.02712758044449275
0.02491323758855466
0.01861927722471949
0.03566040519078064
-0.017802180323875077
0.055594422898389055
0.027823072521106957
-0.07347500099992836
-0.025594342729699123
0.03808128293856419
-0.06142107726380839
-0.017140066125445174
-0.01666619070925283
-0.053576752568530464
0.0037455565080955788
-0.08215453300351164
-0.06065824250209443
-0.010176566808476931
-0.01798188224823313
-0.033999571478532296
0.10086447626521076
-0.0802285662481157
-0.043104985303061026
0.0011570148461636412
0.034635349860794654
-0.06007400407774271
0.030237752609480015
0.02773575078871165
0.0011886661505671383
-0.052693530496524824
0.08383404603106155
-0.017417755407582634
0.0013085276452261723
-0.035311952361137565
0.07206510331207898
0.026114543052129915
0.05678890077022303
-0.044303166135534346
-0.033446054980509246
-0.08867766514357449
-0.04053554857358554
0.044005752429597
0.04828250334248059
-0.00641529637924093
0.08272056803415677
0.015507875334635355
-0.042083332465198194
-0.023355669776412586
0.024667307087463976
0.09342379820788559
-0.010483356943387636
-0.024719236772409958
0.13115317497701967
0.08361918731127957
0.02362354062541076
-0.016904051912032435
0.0843582030360717
-0.057890246459011696
0.00272441735039153
-0.029197483032874973
0.04550033196374515
0.03386978389144359
-0.0753125966940912
0.10453556095837631
0.009326010899334622
0.14340639466378532
0.06881548436002247
-0.03202225116253409
-0.03683655988781989
0.038786523682013824
-0.003081494031810261
-0.05121237914603022
-0.04532310194222926
-0.02466234127131503
0.1128933647953842
-0.010946018017437581
-0.04177091991157279
-0.025456291431048852
-0.07180427295097921
-0.06334779735950093
0.10012325444200987
0.06381331659225804
-0.05133321783322228
0.08131150530760062
0.544222838606728
1.0964643556830507
0.49919197645765856
0.09988764266269165
0.11937595079718749
-0.004519493421608738
0.040787785981499264
-0.07204941425780209
-0.07361205040192736
0.06174778138241528
0.0444960464738799
0.0025768139377015022
-0.0788237493799956
0.028323083543416255
0.03790258412118387
-0.023750124031562014
-0.022145853460107792
-0.06798304827290001
-0.03527022947849841
-0.049439992785022105
-0.07734743768881842
0.05189548052831288
-0.1487029199790927
-0.007910955439800065
0.048664812345349924
-0.00971513296731776
0.02857576796134492
0.1296496910700724
0.003933871147246075
-0.05255035962816726
0.007659557981900281
-0.05794570775785285
-0.025085966290272974
0.025717418390173125
-0.07615889509657081
0.016000519778133576
0.06575570971737386
0.024046364579580336
0.008706053357057628
0.08035250528136749
0.04023275247703464
0.04479645727625022
-0.019040363141315474
-0.07613974395610522
-0.07102681721355472
0.11500816988930516
0.1277747347596328
0.07340871730813887
-0.08530218471128898
-0.04466840477554487
-0.1090574487061484
0.005882753118642406
-0.09121152967864256
-0.00827462611440888
0.04061933587453115
0.022465049185873553
-0.025240424952751552
-0.019238500755824166
-0.04017084497795093
-0.10054798955060638
-0.07395472074457597
0.003960796303306864
-0.1045588352296663
-0.06122918360753435
0.01963727650872459
-0.022576090536582608
-0.0854208405504784
-0.03525331645481271
-0.01770039744760682
-0.044725930317884716
0.04771979614839603
-0.015613227466902286
-0.03385091051080611
0.05075004407120131
0.10719638527028895
0.0005174757192504074
-0.05821098466792407
0.03792089189713277
-0.028324627826788074
-0.07660020888455285
0.019684330425549745
-0.013826914088399981
-0.07771240167165056
0.0010752028332753668
0.06195558021761591
-0.03518951936152075
0.012771928800817648
0.01673822192720556
-0.009338632338810325
0.04116985585514553
0.05495109699732159
-0.006515100663964985
0.027573431012256757
-0.04234654557720134
-0.10465795700532954
0.04866569390386163
-0.011095601711299877
0.006696561642444196
0.0070719182308353655
0.04442295326086636
0.01878296430728268
0.005903630128459921
-0.016055022331040524
0.015796129062760202
-0.005730301461174946
-0.05015716900475336
-0.05837957230650514
0.09512133007385891
0.0034175138390888124
-0.04869426675461515
0.11430175523103539
-0.02155632274146996
0.030957054290478334
-0.03253353618988199
0.024091750960510812
0.03200683112817655
-0.0585088751964178
-0.03327181870546595
-0.018621194962644885
0.05179383337980381
-0.007936156358014755
-0.018375187493504655
-0.009892030414915995
-0.04492939482981311
0.05536687165809943
-0.050850034959386003
-0.021566215117314963
0.009396695613299677
-0.03899632508295677
-0.04628877551313241
0.09019716995249732
0.04862958637221184
0.023569988892275767
-0.02130652668155348
0.008536686900393147
-0.017532902000631064
0.03478530735578872
-0.09156596480209517
-0.04541939027806971
-0.009521407722704621
-0.13494201127065805
0.03282974959380306
0.03194982910810658
-0.015301247029772353
-0.03504060119136484
0.09561650408473299
-0.05263030068718812
0.061884983884370276
0.11925940119423661
0.005751934064022102
-0.06938209403550269
0.05770292068496982
0.06228137469423829
0.05015953514243165
-0.07237490407004354
-0.010113127823348098
-0.021479670028931974
0.01783097582212918
0.12273003541109556
0.5332649799865525
1.0753104995205591
0.5577645327410936
0.05751707485769501
-0.026853693327920786
0.021454206189500804
-0.020782354481491405
-0.03562755291136906
-0.0588570817874169
0.05989791572146617
-0.019175766450546337
0.0020323183381808483
0.03743655617830934
0.06408115095452822
-0.01764710730007817
-0.03237685030244871
0.04808521012227408
-0.03235096399067766
0.013103058000890361
0.02311802722709484
-0.04818609090208093
-0.011439537370155484
0.016074519910491785
-0.06970991345529008
-0.08602282006938865
0.061526547906174345
0.0308720533275961
-0.10646979774220433
0.07046676651127916
0.0058931141403019095
0.05011745506112978
0.016362067931281497
-0.07788351511604634
-0.03134891792786977
0.017714233909447975
0.08468129702901965
-0.004438948614626353
0.045344056838682596
-0.03217349098644119
0.08321609011693747
-0.08271330936018816
0.011295988950996871
0.08993880643980195
-0.07565907241474995
0.008100896433071261
-0.02011233681417616
0.055413384661397225
-0.015584029535029032
0.027545033447331665
0.016069533589860165
-0.009559594622148507
0.02626140784863065
-0.05269161111969171
-0.08534659408331714
0.06177797003923176
0.07313512472490379
-0.06975564945290319
-0.010407732303264776
0.08724618180788277
0.07100638285788237
-0.06863234271340342
-0.04119558575716664
0.04408750682315946
-0.024664606303357445
0.0016817179981464044
0.0267494495785415
0.0015740953111183292
-0.005346819619676208
-0.019072642166046164
-0.11216337933672334
-0.045756962118615595
-0.012405684144673277
0.09282044183909176
-0.02888854003347574
-0.03121878546274407
-0.027840073457325976
0.06678727354730864
0.0533574124181483
-0.08459188461777525
-0.001776564816393631
0.04542697325915919
0.012112066447730623
-0.03686063202726217
0.008634918555362525
-0.018559241800591215
-0.12442271463830575
-0.052425243209480346
0.008220192949163943
-0.08438422611203979
-0.10263455642241992
-0.012464470660429241
0.053031688706464686
-0.037034153867541185
0.05711742343561299
-0.038882378156135586
0.043181960553903616
-0.008633744324930472
-0.05682826925380622
0.03767823016896659
-0.031269570969670674
-0.023036755582926973
0.022561859237166446
0.05941832999370761
0.039482086258058
0.03360936749069197
0.02779699865651793
0.11878424598444322
0.07130459118743161
0.05000183370771937
0.029964443680596087
-0.03855975649379501
0.0023309061818890127
0.03210820246667966
0.01045597240110962
0.0060130027787926015
-0.042904106141891024
0.025407929487013082
-0.001705529533046122
-0.052811943194134514
-0.012652964451696343
-0.059222484198825504
0.0597398239196288
0.005937307841940658
-0.038248663792456936
-0.022145739255714874
0.06084509288310633
0.02324570386097057
0.01641583445310098
0.02444956171545434
0.00622187909354671
-0.03803221721092659
0.036362247193298045
-0.021967041771915285
-0.011322717737590691
-0.037318569352001944
-0.023438866464804854
0.0785781762135057
0.026133820105235683
0.028277384277278852
-0.10289789562745309
0.02298131811471152
0.09122257388749827
0.05180416817772049
-0.004213408204348585
-0.054274273546936196
-0.09458365641592739
-0.037447691535713694
-0.034029734465234655
-0.016835515953451057
0.025948121904198675
-0.03201845818617979
-0.0293869255282613
-0.04181683946138598
0.03641529077964008
0.0024449085275240526
0.02630085808320859
0.6069725314099287
1.0233395845695787
0.44016816419018123
0.1610650087560802
0.039077041356189196
-0.03274924488681335
0.09398774522009092
0.0834321105352939
-0.09141751137749698
0.008404312318140894
0.02040979062940717
-0.01704266211675316
-0.059651403736266685
0.03611876571244943
-0.010064204627592475
0.10523449176299587
0.07090342273252752
-0.08639884470984704
-0.03513484042256677
0.008548658386904577
0.0013321080123000785
0.01854228131607428
0.036455022563570624
0.009440048916119369
0.06096813995192929
-0.01595084624755545
0.008234449598102756
-0.0016711008486440114
0.051911044357238194
-0.02682809401947761
-0.08988554172254465
-0.0360121080604984
-0.04660901846082274
-0.016459710176396216
0.050643920692602235
-0.05814096060518895
-0.009065460229610472
-0.010714551284129598
-0.028294100736870748
0.01741698855620982
0.010890058942379238
-0.05212700198903977
0.03075192811450765
0.001101361350115257
-0.027421175022495532
0.06080586712889591
-0.05344327426969994
0.02963799354601847
-0.03129717198401084
0.007919222198355237
0.016337069247527224
0.01420893713758206
-0.045177193287861045
0.02240565994781639
0.012016782404019
0.022744650505034443
-0.00867933513393653
-0.0375404936573402
0.0020433481120558264
-0.06540939774801661
0.013805123357516902
0.05784273757240385
-0.06461794167709349
0.04007739419613267
0.0747835783263348
-0.010818065317876126
0.02622707264937922
-0.04267044323211714
0.07862840962606384
0.06673988599275718
-0.02659262393778672
-0.08883107227039572
0.01601315508778277
-0.02637332481040687
-0.03455593981415469
-0.0506790778455818
0.06872304848786216
-0.03736263700379663
0.041816667905740706
-0.06200978072983099
-0.014951256734259108
0.05019548263383514
-0.014317892332763333
0.009593891016910027
0.10466612198482209
0.0206027669842548
0.027847526887925217
0.06278064592127133
0.010922476366378218
0.04465179047048912
0.02632004198577012
0.029309659426367998
0.04466660885686871
-0.0530125752921269
-0.0039996455859801095
0.06387962847575733
0.06701968762792286
-0.06920926504689788
0.05059782234385353
0.036604808509353944
-0.002883094985270581
0.024948690569112676
-0.05818689899604515
-0.019950117126575146
-0.0049040594222265
-0.018551591455346787
0.05453144193704151
0.0011762304763381119
-0.043419304409059674
0.018276294204733798
0.00470525595172546
0.004853599392813061
0.06980371650194936
0.021963563154837034
0.0016397565478248333
0.00771703919724449
0.005039275684698961
0.062351440889822266
0.07864120313396566
0.01665455662659161
0.08846912004276208
-0.019958156447935388
-0.0012340661825800073
0.051432701486511606
-0.030583079220565912
0.006073719443700201
-0.047206770477196514
-0.0022797635262514393
-0.03938268438263415
0.020406267408429768
0.04510825511199023
-0.029620333086171555
-0.007933877800975767
0.0956589351879041
-0.04149292621439451
0.04419357531354231
0.003558652921955969
-0.0038277377930852063
0.09500379955097998
-0.045968958962908424
0.012863447704876836
0.07367466901331844
-0.0006840810429375053
0.08221232636142524
0.050931562372934225
0.00322867789016824
-0.019613896673398572
-0.005291066859382857
0.03930531320069253
0.055294855424325266
-0.11980445104591762
0.04197999928687726
-0.028250040974057283
0.006687593713608395
-0.06674902546095964
0.00209608631224189
-0.03051654123394339
0.042974338342431743
-0.001105983380547076
0.16025429346754097
0.46734337438179496
1.052497744565217
0.43830901457113886
0.06142577043621783
0.06815895108883961
0.06307791034939046
-0.07045232185859839
-0.03296318278819465
0.08224760127608266
0.05629477162430566
-0.0669759281093724
-0.09943217639866091
-0.05303686739046002
0.03545723141409101
0.0602361227773358
-0.05525366323103076
0.036506349689090396
0.07165888539868613
-0.021842619570069652
-0.022369257398732776
-0.034443985582603
-0.01786526151800739
-0.08813730630652494
0.07862869509845516
-0.06510409841918323
-0.0055818761837357995
0.030335979357014837
-0.01933063123898188
0.07474223677836767
-0.029834072129632506
-0.0334636155924081
0.028091113784833723
-0.045603416534058
-0.03400149236654304
0.005173081761167585
-0.0055783403978866795
0.055478915174401344
0.03120836706767052
-0.041592504145872115
0.1161442819185201
-0.010329258420478904
-0.01670781371270603
0.04071191379918056
-0.03185210033022328
0.040619358154406364
0.0419584361594341
0.029128669658705426
-0.03922578367655741
0.06311682340858403
-0.0010959274828762464
0.006501059832102124
-0.043682315820984585
-0.047034517950227284
0.0250642655401558
0.006885765960066636
-0.11359073402294494
0.009150223202270975
-0.02442470771518814
-0.05102650740701149
-0.033964332531750206
-0.041828469101682836
-0.021404299032357573
-0.024295004665671985
0.023561323750242183
0.013763519985065285
-0.024310393471548033
0.07084616703556627
0.02969551311994576
0.03522185507962807
-0.020056235368087108
0.0764558070779211
-0.02542839015985149
0.04970895057411778
0.024981551290263915
-0.012876096106840844
0.08820865428454387
-0.025670494558448376
0.02817243494371606
0.038446713774674283
-0.027546529753715084
-0.03246203269042013
-0.0835465817229132
0.023842132887555142
0.10401933250961029
0.010064357454002937
-0.04008188377568362
0.09239864235011937
0.0032596269743398556
0.016946337259860816
-0.07915679811790845
-0.00030886787807147924
-0.007035065820005575
0.01924360439357785
-0.045368770226219365
0.02814142839061482
-0.040842859038592666
0.02836453420619068
-0.02125471108339691
-0.04503094707194298
-0.13673888241889307
0.027124144742565054
-0.08710158039196132
-0.06734887553764328
-0.022134437529236314
0.027610237791531947
-0.003842480892566163
0.0007487524672388141
0.03993107695067299
-0.05933062199276693
-0.09739217464936141
-0.015713386000578807
0.02795783522410121
-0.018608014217043802
0.03380288910130046
0.008406580144026074
0.033952788174066016
0.06591740281007771
-0.04489975988306914
-0.034328513920118445
-0.0732318420109213
0.011055219050870084
-0.04723261186034093
0.045808877773453466
0.03929374409558184
-0.08179617809600702
0.058042124488756563
-0.0008967128850679833
-0.034129370429823135
0.07102091111608276
0.04080857714428895
0.06284190771630903
-0.1408536850702323
-0.008333640877617517
-0.009548997360828655
0.032897334958359906
-0.10777286296901355
-0.0562190457837924
0.13043585246044095
0.002667594027060914
0.09299811899066823
-0.008331274858532868
-0.03475991115899505
0.14654112336694938
-0.04857525289139505
-0.08446263888236676
0.010792982148506755
0.06145698137263213
0.06637464353310339
-0.002707204049897539
0.0195458236987317
0.008891660349725416
0.030173570265489443
0.10962013447284015
0.5188174058622368
1.0427753157000323
0.5192972058521671
0.09450347413489299
-0.009171871790632367
-0.08840640212817395
-0.04710175567477877
-0.013677301563106002
-0.007194920520433157
0.003391920157402534
-0.004749647892994603
0.005385755491976974
0.019613942666302703
-0.012561680053911665
0.057948542245860546
-0.055317348310960725
0.040270343999392826
-0.07917271367252006
-0.008510137419053187
0.005530169900862694
0.0025191210037927565
0.01019833942217892
0.0962212021034548
0.05117201980419356
0.09335923573394232
0.029455885690620146
-0.05448373448287043
0.001205262001304253
0.016929972695296114
0.02253936729043474
-0.04330157753825532
-0.08130060131998565
0.005447996680686302
-0.048625825640439345
0.07302123462014505
0.022775127486083877
-0.0013472077604244365
0.023162782938175256
0.031128753267456823
-0.016990253895632454
-0.0875931166106023
0.06234877833534276
-0.057063235970320585
-0.007773679065353633
0.053990826654651214
0.06711056590607471
-0.0013612708496769542
0.028866035006432686
-0.0455241309001026
-0.006072628684663123
0.031619632759033255
-0.024945808904220358
-0.015506491885773886
0.07435931284528426
-0.023682423305831563
0.06041477284307764
0.010506674848230115
0.024550318037877477
0.037680551181077
-0.015755728839327604
-0.018356043494875005
0.028832973305243773
0.048429536194676465
-0.03810117120116389
0.017771064245588757
0.0026959907249342633
-0.03787677335059889
-0.00783911181144907
-0.011479148625042887
-0.022719350257442678
0.061220914723382584
0.003265282978867741
-0.030588215284987424
0.05322955099205179
0.02829296130102976
-0.036871046781102854
0.04472893901189136
0.05576811992752302
0.061592042267848535
-0.03064372352732332
-0.041728719717126064
0.023232605756815843
-0.04776938475366008
0.0010329852213664754
-0.043361797913199246
-0.020439110344550482
0.09777655002860067
-0.024316195772534258
0.016864181480665347
-0.022135861920317718
0.008173120601555783
0.0012713171417717511
0.022195093838111923
0.08302325331262639
0.04763075144091699
-0.01988924031252023
-0.0024880245536984726
0.05747757371348447
-0.02448185068455703
0.036298474216874196
-0.05858614785586505
0.03492857110650808
0.0022911743360128104
-0.114338373090111
-0.0026680540398487315
0.023717921082277237
-0.02089260345878707
0.07611608228193383
0.05010006700515038
0.07464157318471239
0.08279072986572295
-0.027163302618108433
0.016520546441709357
0.09513598825425341
0.002337791892834786
0.03532346418676163
0.11400567441594406
-0.05699947457563279
0.03150547269860878
0.11611997657205762
0.021334550273243696
-0.031002368928534797
0.02637665274350018
-0.048911960001736504
-0.008801121157047198
0.06751947277804132
-0.04506777418196752
-0.0018749359295854866
0.03497964990990748
0.08542554912777917
0.009620246174896919
0.035344315812952325
0.028841705833318538
0.06526994423371967
-0.06608494788741218
-0.02694399158700088
-0.006022092142497836
0.09517569181668868
-0.036308414756608
-0.08361660704263535
0.03578135710761943
-0.06666907028734274
-0.008871513203879076
0.09375579584795095
-0.04196060284687598
0.0022742323138102228
0.05653732837561564
0.03826660673021987
0.0207858457876321
0.11075074831592627
-0.00869530793981591
-0.06755044346996268
0.001881489016994673
0.001621080252396172
-0.09236088661327883
-0.031191857544004383
0.09585113889383885
0.45819713746531593
1.0327583767615942
0.4736408838437131
0.07463003958996293
-0.0656746770077981
0.04013951884647185
0.06039161094303597
-0.003574172166134027
0.015621487288310055
-0.046904520807145494
0.058662732311071775
0.0008131931783047241
-0.0016327330072633155
0.030268843966002962
-0.0666463444187176
-0.035155307129305334
0.08284999622362972
0.06269479224061314
-0.007759882182985185
0.03163509247737122
-0.037364624929510586
-0.004287030377261851
0.0005676678019272448
0.049105358255102816
0.012969313427946341
-0.04378765589078987
-0.06043817657932359
0.08550659187981542
0.07924202119155203
-0.029499998189719635
0.03274590540984841
0.038492099150918314
0.017104570290565516
0.05542137119535837
-0.030263620686184736
-0.04001887358887145
-0.03732775129812269
-0.013311169388731628
-0.06345011249214047
-0.0029985104373718144
-0.004742156199260161
-0.038272372500773526
-0.020932265835851883
0.01706866104525965
-0.07574433058846773
-0.03943024168569057
0.11977740675782884
-0.016176335282472826
0.006949909792167863
0.036014917254826584
-0.03708508087955061
-0.006489396827854827
0.12242103807114874
-0.06422881314619354
0.046698802411092005
-0.029696994872103723
0.11743290957573059
0.03303111757002084
0.045546798189903884
0.04436346592269937
-0.12833096107808076
0.039416675426105496
-0.05297213413462442
0.0322527451195608
0.018294326359384713
0.019212122930089302
-0.07458973962876049
0.08418961507242237
0.016679138314490055
0.016921549651875527
0.016962740747806487
0.05648195850529674
-0.002684236394735153
-0.03404785625013917
0.0007909501881324754
-0.07062988922361332
0.11243407896427529
-0.06075375255103971
-0.009420509165536625
-0.010227924499482193
0.028592818963531542
-0.04655340895475319
0.0543272082186186
-0.014803068998652472
0.046705553473288496
0.0127385529231344
-0.02712856092030699
-0.004106444074818434
-0.009094946528823514
0.06090858820803318
-0.02827590331362367
0.0395071311818099
-0.003982447034419933
0.04344556788001494
-0.060291075688557016
-0.056185749105564224
0.0667923833254116
-0.016723500236046778
-0.055734021556949245
-0.01594985397282194
-0.014614047512278395
0.02656005647502572
0.08635487271640989
0.014787057527169254
-0.06852057477285227
-0.06049354040014006
0.08883601434839153
-0.09410096012920066
0.019118057716489802
0.047256403265418925
-0.04084268812846563
0.01513480770098384
-0.03635806061846649
0.021332891351439807
-0.008756157696976444
-0.08910359271206364
-0.042525947606095495
-0.03888891561005059
0.10879765302439898
0.07925861156891091
-0.031326276583916256
-0.024561137765501857
-0.056946988261974654
-0.0786658584881781
-0.010353578195339915
-0.026477320074319934
0.062011231314369
-0.07408558563824512
0.10543960174911589
0.12029049240896841
0.0757661861051804
-0.03112785255021641
0.03906744996285188
0.036643881196399795
0.07392686702771288
-0.07358148933105725
0.015103613614359388
-0.040667133160276064
0.10015254905282595
-0.017523807253572676
-0.014599966508328713
-0.05998804551488847
0.0012260881458067625
-0.016795521944598157
0.08243916312717507
-0.057558019484769976
-0.05108537488569932
-0.022135441572479847
0.05739655888221791
0.01602001098314319
0.040417061327104174
0.04844543095777189
0.014746918521090925
0.06001374095025247
-0.10182552596907157
-0.12892598794957494
0.1127529880431651
0.028333865459364973
0.20036396251709482
0.43569897500986576
0.9883743667503972
0.5245285052601614
0.06687590622342544
0.04412615634343578
-0.0800752213591556
0.09119238249505135
-0.02192746179782261
-0.033238070653246674
0.004324901382257318
-0.09386537383766594
-0.06742946653723039
0.042303635953605034
0.001965484642558149
0.0064159382044472
-0.014851941798898633
-0.08012962876469654
-0.020943280532969667
-0.014997161422599888
-0.01950070207445143
0.1436902236936591
-0.13219102239136257
-0.071193153073674
0.02419922275416842
0.04115592076217034
0.09880601715870078
0.05935529387119531
-0.060928943093009905
0.12411012765980844
0.046779313107746766
0.009861307673635075
0.11082276346136029
0.08009390324936565
-0.027707180917904695
0.005140591698339849
-0.05032515153755976
0.005621378401694717
0.0014753509614826965
0.027958166132459696
0.014677034981546431
0.024376913977278578
-0.014430055443813728
-0.09425605785789504
-0.03696015344955241
-0.033569157863768365
-0.045579794544222445
0.01248488653849153
-0.02613639895929088
0.03720540455241991
0.11469163421581136
0.018590248624798106
0.02359525888599919
0.014280867808767906
-0.06663338089373713
-0.07085305214792421
-0.01647456827088951
0.0668166772452608
-0.020587434234272464
-0.008719177648840925
-0.06393738595892201
0.08943645203540225
0.024888002916950244
0.038549895118314935
-0.04237119857474725
0.0008155214146504026
-0.04469536871050539
-0.007088815490481493
-0.06844151597036778
0.05734135872405316
0.10429586537991822
0.04288221226198599
0.0002624781179377044
0.07566085252360791
-0.01544783190083731
-0.00418734537132615
-0.06565607292403146
0.005609839650530178
0.04144380784046967
-0.019062035976917014
-0.03137041284716801
-0.001830490710707307
-0.1902151520928495
-0.01371126437256619
-0.0671936055306133
-0.03964057031657878
-0.1321996548679827
0.08475313188632293
0.0452651752352311
-0.059565980132572874
0.05551604048557275
-0.0871568670507401
0.009619365051287417
-0.014201526013756974
0.04587822824618784
-0.025162841807817322
0.008968729298638324
0.07350232168130859
0.03378758853657455
-0.018367756035696965
0.05479779861526551
-0.016859793773765994
-0.0993754608270546
0.0015407296485063517
0.05478774129370213
-0.017470506209241753
-0.05970097450065059
-0.058138623204427954
-0.02807664466627345
-0.022662975558995102
0.03645738264438231
-0.07129356798200617
0.05458763529379858
0.003197560768979566
0.040841755005591035
0.0492032692785296
0.04393042212938055
0.09650287896355539
0.027952189148282815
-0.044677715269009856
0.026055565926355086
-0.05329701894341387
0.05203406997084456
0.08003419194002043
0.026587887249165006
-0.06261498242837299
-0.00029303441315865953
-0.02638864316029213
0.003164466242326565
-0.09780613197313603
-0.024902302949395223
-0.03248826377546222
-0.022555557474425197
-0.04109302751360336
0.006609444531520988
0.03915975877827606
-0.07471875749634821
0.0070509736734457665
-0.030382184702241084
-0.004041602184881497
0.014401812069260082
-0.07113742432426698
-0.039032422202662446
-0.03120838231293989
0.06160395950735492
-0.010635063848412646
0.07855577733578156
-0.04016512387983498
-0.016455964408337485
-0.09413272521698074
-0.0716475687782772
-0.0393543672069003
-0.0021038199338976253
-0.032915287770313
-0.12596255700139708
-0.00035594733230563636
0.018919935574393858
0.031745700684368404
-0.04107193927640882
0.15911633755422633
0.46494595497322366
1.052999503707923
0.5381924521013448
0.1027020298417546
-0.033122571042868885
0.049734961523581415
-0.06008314181086027
0.02254541166724598
0.05910108505363683
-0.04575722747317345
0.08794562468947946
-0.035053357682815
-0.010462314701590522
0.027330801860858213
0.008015390569235522
-0.013007510356205877
-0.029970032894525614
0.0010543126064678256
-0.08160759718731253
0.0173399895145053
-0.023069764536487083
0.020158249951832803
-0.048200175197507966
-0.010199897319249092
-0.035846681911382704
0.12150865783358372
0.056141674188711854
-0.009737116376003899
0.02547832577944178
-0.05028573117335089
-0.004178627299823692
0.02993616133480961
0.00979972641426675
0.02187962482131482
-0.0613081756562653
-0.005318101321666198
0.05900086469147614
0.032877189616156224
0.007897679651466904
-0.07412526943206725
0.024380019762868865
-0.015709867439614722
0.009812432378698123
-0.028872747311777292
0.03580452200832364
0.040577667798021806
-0.08208795057643808
-0.03244312637123779
-0.01685402217100057
-0.025534765428924397
0.06016490384351484
-0.037196140265740446
-0.044547748731927884
-0.04666038174358572
-0.004118423369807029
0.063213142355971
0.03352225412084729
-0.08103845977698787
0.019758657234938387
0.021852930116025085
0.07498196044756404
-0.023518054080824257
-0.014218812185004912
0.005258647721860983
-0.04199372621339152
-0.008718542568534486
-0.05315647387284497
-0.053954621223201084
-0.007739993219041745
0.0639363773095412
-0.05199562878876769
0.008500125625986763
0.0041188418919828156
0.058108085260461184
-0.002157532000365225
0.04772743401718642
0.021014644779824287
-0.011004885723358213
0.019714533399484747
-0.06977633952628358
0.0074398333344525116
-0.009666703213609538
0.04679812642093406
0.002948797686209884
-0.024016921570065786
0.013352490721429978
-0.0063364558220073254
-0.029002439207224395
0.024662569676781668
-0.08482270597676364
0.03850475201449168
0.03652628982321338
-0.008302496048361882
0.01523880877118438
0.04393182312863546
0.0492603732587359
0.02519885842437987
-0.08281032770791352
-0.09245548673181508
-0.04877860206835153
-0.07818803574869726
-0.007124805613600589
-0.05507817722209971
0.04485307262494597
0.0004366759984727494
-0.05586928341645904
-0.12385464838360104
0.0024305851456864268
0.15803298613447375
-0.002588764599232435
0.0721088514106808
-0.0007957562170104422
0.04661130375620661
-0.004459673143197939
-0.011607812104890541
0.04917595708339262
0.03772079628504706
-0.03510900382753653
0.023979209578981316
-0.0732179482679184
-0.012411936981870642
0.026139457417533013
0.03608259109506926
-0.02130183109830599
-0.021475592056219083
-0.01108953783457444
-0.023742184510813037
-0.007618427644093454
0.06806399489441195
-0.027660994221052917
-0.12738284279622208
0.016389671139878735
-0.040005058708443425
-0.009104360227537876
-0.05790961390189425
0.020834179200142255
0.039507152079987534
0.028549377391412296
-0.031907943004721245
-0.004511357371648445
0.009218188591685906
0.009046426078361041
-0.04921985281702329
-0.03020196358661112
-0.03831685017172767
0.04760238837594441
-0.035066860669780826
0.060074209864562016
-0.003264951881990925
0.007211516979306189
0.08971469182141192
-0.06004533462770498
0.023948929628103768
0.037737099950552924
0.5072185929398849
1.0029143934127187
0.42334746641311893
0.10571283111243907
-0.028587667657376244
0.05562917127252862
0.0034542551565972003
-0.03865916622732833
0.035580552875087545
-0.06222176298941863
0.0010184834983986567
-0.012726119201106223
-0.0009848652842654026
-0.04133017882811377
-0.0046463943283492765
0.019460144376895645
-0.041481220949989094
-0.005517872662139231
-0.020444099756820218
0.020197626156661094
0.05873134245877714
0.030256282983512534
0.014256534032473317
0.03670523900667228
-0.08442850493268461
-0.010330709392955406
0.041881205697709256
0.01882425061576732
0.05596279829309432
0.00041206422179098707
0.032481732197036435
0.005100611721868752
-0.01498894789082639
0.06093325149434099
0.052123417944925955
0.012643002570484297
0.033070133387558674
-0.04808106877010057
0.028445555548143233
-0.02440516843085532
0.07063176042651625
0.1146022423828798
-0.044136986402745174
0.08369471412426932
-0.04694546968835718
0.021419999447619468
-0.007167956148611327
-0.011075793386025119
-0.03613239389021498
0.01681938691628155
0.005673137707033737
0.013141131206572516
-0.05828776525798082
0.06227162583674424
-0.05613060337391227
-0.04427851027159193
0.05707445522631974
0.048016388953753944
-0.07243899570579684
-0.04105950799722126
0.11474478184743989
0.00011718272368321957
0.032827789549796135
-0.02988699332886805
0.11520623184649006
-0.05084618351054056
-0.026432211298981406
0.036712002996025485
-0.044717710087781345
0.042950142431683824
0.09097921436706621
0.020845774271956007
-0.04237474710104237
0.027879240607321165
0.02288344923863753
0.02430291404995745
-0.03281421019258244
-0.03560586272671512
-0.005522427379637728
0.015179087435685102
-0.12021617410125587
-0.04701822063650843
-0.040438764057533556
-0.04014826500012287
-0.04219706718189442
0.0029886290628134853
-0.02794252301040333
0.05824818200875383
0.005689434934552581
0.04886565776215514
-0.020398200902354106
-0.06987985857655658
0.0032157226753189855
0.05585352771173108
0.06070894067544763
-0.005502098424134955
0.028709711447368093
0.03129256773244698
0.02214045936412544
-0.06447347129002805
0.022132488712303586
0.01640171953731667
0.049414347487285515
-0.09322052469122685
-0.025815936149428998
-0.0030452609618045008
-0.0589076415748515
-0.010155994742955119
0.039544171540138576
0.02043723485852447
0.05000307629405826
0.0903176202623027
0.0016945156485866292
-0.028055888162670153
0.010474922623336727
0.05182055144096
-0.03192715985036659
-0.008756453117561595
-0.021024153129910347
0.002700224752128982
0.09987608607440764
-0.06855642591206235
-0.027852057394690932
0.0776591966889206
-0.05068280605189168
0.05446738260457016
-0.012565336377566386
0.06678872352833214
-0.10273450266217837
-0.07918245140737792
-0.014823223107437078
0.012827086487445372
-0.0017702743697408188
0.05088038443502629
0.030746060823371075
-0.07241457244344655
0.03925950983364831
-0.005548046442295266
-0.022332044462451753
0.09935256573198106
-0.019261111077066774
-0.039087934315310595
-0.03677839575440203
0.0018109745601418753
-0.019613916967340644
0.007553899260670797
0.057051535670090185
0.011484767342112045
0.12250708013868516
-0.0307401346382504
-0.035895761083586726
0.06861408976374075
0.023415899801336303
-0.03445805213235586
0.02072522141925465
-0.06304884297328066
0.054582946175317774
0.058089764470279054
0.052500644437278116
0.21968247730945406
0.4770900871752357
1.0861452043727209
0.427923321136007
0.08982600715087155
-0.0004145380799941512
-0.06162799682127554
-0.028349433141488353
0.023738482656065568
0.03588496858433484
0.059639441125671926
-0.10142371624981039
0.001643922715983689
0.04894446822490268
-0.06717603204883803
0.0037670262624693094
0.04243287508912111
-0.00430692214526344
0.07941137246289755
0.04257142177654633
0.016587299865921275
-0.03906110990502393
-0.0964985900849886
-0.047312374153202885
-0.1005306697678065
-0.08130484765707156
0.024086275769973055
-0.019809891243660137
-0.02432793114024058
0.045207306356469634
0.0013726467604290565
0.006995223662216502
0.06597130499734463
-0.03683231709114129
0.021597171605829933
0.0431917830040912
0.03571074296220425
0.05695563267838987
-0.027430457383696212
0.030630873889242145
0.08510043299692366
-0.08994586166927364
0.008598539563827263
-0.03061217332209621
-0.009537624892544908
-0.003346881581999531
0.06097386463536675
0.010111541785461801
0.026762003383732264
-0.06976105175674092
0.021879834084739803
-0.01321585509779385
0.04819401842563372
-0.05686249575485909
-0.009490968127789195
-0.14442954724976922
-0.06142281903047156
-0.1146024655930251
-0.05339809417435141
0.10148861293693212
0.07852136116875251
0.03701720614110918
-0.006781264312723162
0.06522905217831336
0.012285857703038382
-0.008510031967168796
0.07071461400553639
-0.0013302065775361019
0.03341259221403223
0.006015829919060872
-0.054077343524398025
0.031100650772407964
0.023275226926464724
-0.013586439376147997
-0.013591996519044039
0.009521742841303308
-0.037756516298612174
0.005159081486617283
-0.08219200540512776
-0.01716618522746968
-0.0017965166354091287
0.018698138119503917
0.0958561917844801
0.01559305400662845
0.029506325786800305
0.04050860681172632
-0.0594446024127428
-0.019081200734776205
0.032694216409880565
-0.05304771703450515
0.02120700170571148
-0.011000963560199375
0.051170792868651054
-0.021072049589200004
-0.1227170717939236
-0.06584393956425881
0.0767816179451481
0.018757028285846872
0.010610416023710666
-0.04367547536005687
-0.0347078501629955
-0.04439581015306012
0.00330527085601289
-0.06217443585887953
0.00491398446228243
0.08954710415172129
0.027896981518846564
0.057677044712370076
0.0705724272166535
0.014661200742806791
0.03692069815144653
0.026377370547930802
-0.0070789161053166315
-0.033874979461295945
-0.0063529130291105395
-0.0006987494785791687
-0.008116660665067171
0.0012372888085637565
-0.048820029533928076
-0.08565520552341768
-0.007589707490655705
-0.0006298764633681993
-0.05379753829799801
0.007012032565997176
-0.035367540123593874
-0.016225049048848274
0.03517072333223007
0.0017703010536827255
0.04431330928077464
-0.08534660880746718
-0.04684608144342467
-0.02052013774477628
-0.048425861538116906
-0.0221989295359882
0.017036633361436765
-0.026968082075746275
-0.04108060346671075
-0.008707985155798228
0.08886583130886261
-0.009049362052891112
-0.0013679880547885661
0.004106058248448401
-0.08562328984609725
-0.024549371207227697
0.02180459061331742
0.03071549649182034
0.07222905956786085
0.016036629763412025
0.0435118147949177
-0.05536491147312546
-0.043515920293031626
0.12846970608522437
0.04451048196921513
-0.0334521057176916
0.17095845509462548
0.525443378166888
1.0483878549942511
0.5104468240961747
0.10101929737198781
-0.09443690830433471
-0.028053343551390487
-0.01821285607747187
-0.02992769637939558
-0.04374045037464794
0.0058286801362770636
0.021540332228261575
-0.008603966136248996
0.03753420580112261
-0.007497547980563207
-0.04469442043584629
0.0015702784066372805
-0.09620690036403493
0.00853836522243433
-0.010469681543266388
-0.03952353276720916
0.05363078765349649
-0.03311714922823513
-0.06000251897177711
0.09109230988258948
0.029438017342610697
0.021425202436448434
0.07019839076530487
0.005746775238377652
-0.06378374297554505
-0.03131706747740667
-0.003545148108967465
0.025313620794264177
0.06706973439089658
0.06051020930982598
-0.0193323100395154
-0.08236701306625847
0.005554039660029237
0.03443549862957703
-0.011101292048322298
-0.02799925091783506
-0.03564340005121875
0.07178398038850682
-0.032875899708220545
0.051870824393749786
0.03236809187960709
0.04166646957268472
-0.08406645066070145
0.04366707731196523
-0.02312087147084635
0.03826728970538312
-0.04601314971199368
-0.004613469789213565
0.04461469397391042
-0.03797126806648826
-0.02455615140546205
-0.009833969838351124
-0.03705855951149473
-0.029503471387618982
-0.01704321673227008
0.007687763107995008
0.0264845114557768
-0.0034104678577009683
-0.01616081302702563
-0.026740853217301443
-0.029415476479405053
0.007222973066715523
-0.05046392396281907
0.016785733988246627
-0.005917396589951402
-0.05345078488709107
-0.016658455854298215
-0.017781950799481052
-0.0011898270788163784
-0.0034573006807909245
-0.05016895485260889
-0.03224585228184163
0.013818017152169265
0.011537203636877161
0.01442993357911354
0.06505113925147213
0.031244657019667884
-0.04736152552907314
-0.056201595889258854
-0.027120449797345483
0.009513184004429012
-0.05688829925485141
0.08964940794607548
-0.001054375905992534
-0.002753126912556873
0.07673393578570259
0.009331352710366333
-0.034559974961108415
0.02614116058593738
0.022899950036959632
-0.03846333144879472
-0.04734037717354225
-0.06243457906965175
-0.03682468804319352
-0.041749435319086085
-0.03938052839444975
-0.02489971040444942
-0.007865713380612946
0.10017375250177292
0.06686070526280018
-0.012520548776055601
0.05473850348459696
0.0016375781559721707
-0.02321926540014658
0.012211075695918512
-0.03569862337688056
-0.022192659553703278
0.003032199350479105
0.018740245770654817
0.0038392146695845476
0.11001585281240434
0.0652167787518039
0.04983473449795095
-0.01874158981521291
0.03570564267551028
-0.04365573180698394
0.0017931961790555305
-0.03848558377045284
-0.016746243186883537
-0.03504637562716292
0.007440701607602303
-0.058380480657206114
-0.02505820576436084
0.1384934767106262
-0.02668354911946266
0.026858127672952342
-0.01493606596174587
0.11533168422236109
-0.0029174857393386394
-0.04797043280262429
0.002307279905897869
-0.06211392795167672
0.10575662926784873
0.04711343302620147
0.0747181082053039
-0.07676807398796331
-0.008971415587359912
0.054993954126608624
0.041388614482591235
0.015128536958710834
-0.024599322029735228
-0.00894249364482658
-0.03912022860492704
-0.02587695493131563
-0.09788428682441792
-0.044553748468075804
-0.06137391171870552
0.02961968805877667
0.08961394980927606
-0.049777653715689034
0.0350311846766183
-0.011488696218083919
-0.05516178607729301
0.03081653807121968
0.07462022435679727
0.4611202681065881
1.0427894295582842
0.4860565391036298
0.052295417500549606
0.02378944249907035
-0.06223981654670892
0.07900794731617068
0.04066663380570796
0.05395154621572784
0.0007399232923424525
-0.025768998087913643
-0.05886957953089394
0.040344363185790835
0.05048660539939549
0.051674046812026725
0.007733326888709331
-0.09365820078526402
-0.03890029293727375
0.0069287730436511435
-0.006831229576535826
0.029779164609973333
-0.06199647995547473
-0.10853496938400423
-0.07494387490502846
-0.02407206110097265
-0.03478046400117724
-0.054299664384044426
0.02333585828290822
-5.0051491749614884e-05
0.040936977859296717
-0.08564524855377136
0.03505395261205139
0.004757739217020717
-0.017177339074664313
0.023313969946554755
-0.059288643450700784
0.09333896847853151
-0.050499684233061164
0.012744262287745453
0.057186912282106483
0.02120401905450164
-0.03981591499985447
-0.011909002086156681
0.03062825149112444
-0.04232334200314509
0.022590249784538864
0.056922067247168875
0.06183499630540044
-0.09832369588310982
-0.07999575930211113
0.04724705032030255
-0.0007233705549812459
0.04754316986921897
-0.02117249667543097
-0.01681116951596158
-0.03262264771416133
-0.015595204409464217
0.0472258335214365
0.032968135528018444
-0.06619981045120499
-0.0038341545833976594
0.003214841855861113
-0.01063010369311015
0.02579759712036251
0.05054859100695465
0.0047929708102605745
-0.040481107375968835
0.017014181562576693
-0.12925421521820954
-0.017197837259888837
0.045150389228714005
-0.01296279099629185
-0.027653604245304827
-0.06237376420725893
-0.10446902450711033
-0.04375204940063023
0.09768799658938743
-0.009371147334733982
0.012556438004316248
0.0018457528439678257
0.006006993327891952
-0.09991214374597675
-0.08487158092852407
0.01610627204005223
0.08734710237198154
0.016050117455720377
0.01725343890189234
0.07924057698709176
-0.06295418424432157
