ecg
-0.02875242470710078
0.09208887141484311
0.5797035538918045
0.9641133898527557
0.5772997450114175
-0.02412253519779292
0.1170855093623479
0.030661317330315525
0.02512752420744384
-0.03950270289297783
0.0529988445905245
0.0544802842025354
-0.009621305085898181
-0.044407233476443125
-0.06256445304320471
-0.05105415965720074
0.0652466643846991
0.03035531735494846
-0.054574010461352344
-0.012037629606335953
0.04841456588470279
-0.04719459114159719
-0.020703427481038584
0.02710646317174488
-0.017046472553236717
-0.12391706214444016
-0.03392286035515822
0.05085986389849079
-0.010306857301709646
-0.02856303160136167
-0.007973786957526726
-0.034590015832918035
-0.009927078965049003
0.001565635381946839
-0.0969665596376592
0.031255073980410976
0.061357405719704966
0.029613095392616907
0.022583279189803598
-8.534244306591319e-05
-0.010764274631774647
0.0007055707516818148
0.023379139744521205
-0.0017614556528370785
0.05553157341447151
0.06279259455636042
-0.044886016214154265
0.07566129762456938
-0.06933335575905399
-0.02445561839435774
0.037661304301430276
-0.006215362730670762
-0.004105408677137617
-0.03833448771279633
0.03489139626606513
0.01796360276936045
0.11541480587231681
-0.1090922648669074
0.027406644002697607
0.06435771023245886
-0.001149634464881116
0.059844872283188834
0.02958608548244549
-0.010219866588894764
-0.005630338348978449
0.037085744541362056
-0.027698289238129614
0.024715967096974614
0.030751119523061338
0.08007256959015369
0.04711735646634366
-0.03498993390626495
-0.0732158677512966
0.08550287480818185
0.066106067225426
-0.015286603740041971
0.008648938230071412
0.0346702795388354
0.014296549776470768
-0.0442276156009368
-0.021918612279999417
-0.04661612779115017
-0.027473048312118865
0.055403524869502785
-0.019386960543990653
0.005929716605806191
-0.08472351853038528
-0.02111702119972869
0.03131990185765855
0.040327767776188905
-0.02170737248504008
0.03448911208533453
-0.09566871210303697
-0.0017176180069698992
-0.16659727376548913
-0.04707537809443854
-0.030073277094042235
0.05122207626504713
-0.008595367034910885
-0.11818514697889825
0.005836545979037381
0.004215458308392563
0.08527707523989123
0.01600014340255151
0.04739363059477049
-0.06223486353010488
-0.0684825035840681
-0.05602331922180594
-0.10829523962540791
0.029169043793411127
-0.038240832558387866
-0.021213131645465278
0.008564899192772476
0.004643751574674315
-0.036247898937962576
0.007069998503070285
0.06671143596154476
-0.12830374828075083
-0.008433395519715024
0.06112152804100719
0.0030548206521008475
0.019174853147264685
-0.008125735896113751
0.04898030983545287
-0.011716388925583736
-0.1021635722817357
-0.03987512028222134
-0.06100815002557933
-0.06476330613034752
0.009683273356429045
0.045282894156650086
0.003006473534515338
0.0008094676511191173
0.044619213379096606
0.0036454390318092496
0.089107547150518
0.09380383736131354
-0.014265713116236062
-0.027635586065967405
-0.01814168958081051
0.016041676162599463
-0.02921755359478801
0.051204596766314926
0.012581835272496587
0.016207893441474434
0.027455542299502884
0.003514389907002471
0.07058064418929012
-0.03401879992912629
0.028200103991856802
-0.0346875609191903
-0.008290514624574787
-0.01849935315878931
0.09366029877648335
0.07932254628755363
0.04073270795958489
0.024498860756516805
-0.06650192023296297
0.004790731224312878
0.014432877224607538
0.022074447202163106
-0.049602175580862835
-0.05146128496068282
-0.03331410874537658
0.02644894474012755
0.0164490079805476
-0.02544428363232308
0.07284553275102378
0.14595284916536042
0.07251886382206615
0.0872048980594382
-0.013348534113618605
-0.051775116947051975
0.01999607632983192
0.0684516550399865
0.017620641750453005
-0.00018455176182423632
-0.014740190865815968
-0.019373753065731178
-0.08411127922706263
0.13170335125755767
0.018550988118550066
0.05758313741352358
-0.03374953804765939
0.003208368693792405
0.09120235816390267
0.031131748356633977
-0.011911250193928918
0.08022734886385445
-0.06645667885930061
-0.00975908155345407
-0.03290826770472204
0.027670722336688765
-0.01178937898353789
0.07853089982959721
-0.010079085456191798
-0.053131697751429265
-0.07938921578457092
-0.013941079171831556
-0.006092788094492797
-0.03147684678874779
0.02663164996278409
0.002158994913119599
0.051433476339153766
0.015667051657863435
-0.015687424683019615
0.10301564833140989
0.03012779654253338
0.0012621969207754174
0.0414088205637409
0.002403151010913105
0.04307839267554954
-0.037263945741118416
0.0364804226287415
-0.11672942298066835
0.14038997532959632
0.4120818461083654
0.9900935053107119
0.4833618880005092
0.11802439414021175
-0.06541617817871972
-0.058920431530834164
-0.02075236413715686
0.05352582564741135
0.006463719410862445
0.00491915430798124
-0.04389950118774799
-0.07355052791002054
0.041369870536968605
0.03828651180499969
0.06469280395553505
0.030815201704135056
-0.0726438680725285
-0.014842410975553581
-0.015667412683304908
0.05148782023199994
-0.11283120777833033
-0.057118335065926874
-0.009147826475707813
-0.010902140579727953
-0.04119533431225342
-0.09220868080761625
0.029560315847289145
0.04930697988960442
-0.021952999927254288
0.002906641170746863
-0.0499977392148343
0.008885042469442474
0.005418503418463451
-0.002271947254386126
0.03249416490561991
0.03995247078153948
0.05130313812395513
0.05287550381964106
-0.024488738563601592
-0.018089575275068052
-0.071914163835484
0.011025412802447995
-0.011204353067454875
-0.07012510644291978
-0.021489997714721435
-0.00838683768835644
-0.11238987180591149
0.08476631040449331
-0.008396559654205672
-0.05657191353593889
0.007269123273032924
0.10883555644753484
-0.022738790809606054
-0.004006184138590474
0.03273850290425915
0.06414423662773446
0.04591150185416532
0.01352889164487785
-0.0646347401996234
-0.0005625202702437535
-0.05425052705715061
0.04182049115678047
0.042294376485388814
0.06624319431966053
-0.06945284654382054
0.02470684677097473
0.019169324890544345
-0.0014802062975464185
0.03011588450048479
0.03771265193708052
-0.029230703987670876
0.061244858896524326
-0.06023822689779882
0.03137444217402471
0.037629972159780437
0.04050789775087363
0.03572478352074895
-0.010930939125123449
0.04467605636158782
0.044667802937547345
0.046472878333588014
0.026585617054474223
0.07990520360218399
-0.0009513309131518289
-0.01661093521796287
-0.04119392415353834
0.015353969556693032
-0.06545008485264524
0.020316407840696715
0.06839488033579737
0.04759414333626136
-0.023747866022097865
-0.035347445845944354
-0.014995929755513563
-0.03377013915867675
0.07474216615069423
0.007505949053565181
0.02824288560472656
0.0724797728216127
0.013313445159191402
-0.024311963099495904
0.06850830513663182
-0.04034820542856896
0.11087076785985595
-0.04204202173332593
-0.0673035102667096
-0.006224655836244781
-0.015247360010423
0.010063734740627878
0.06245852597487464
-0.00803062068188101
0.033990319466777906
-0.07249107640506773
-0.04718890851022555
-0.11119213086338763
-0.017504742685377828
-0.022587609136566086
0.0009922625442513413
0.004256926434175642
0.024063090153032235
0.024124857766330405
-0.023443381637723356
0.004741352447136091
-0.05447055862866471
0.0763982791159265
-0.022749170831510675
-0.002000452638400031
-0.03049137774484688
-0.027461348642334005
-0.027180524376367518
0.0675065103454137
-0.050473937022986776
-0.021295211978775052
0.0330705980706648
-0.04028802210746534
0.013319216893883669
-0.09907768729548323
-0.0010150511301446265
0.05472413112185026
0.0436756656616655
-0.0414442374407829
0.057829992612744144
-0.06928197549764237
0.01870259697706759
-0.03174642359984758
-0.05566090573497476
-0.0006420568627688438
0.0376705675970664
-0.06142207524507877
0.06126354438772205
0.07213440132406998
-0.09315978550631118
0.009923479500249126
-0.04318273926623801
-0.00023909450426131394
0.037865120288630635
-0.02734932224219528
0.00868774863391989
-0.008196743225905157
0.013591301379775636
-0.0704338566474371
-0.04883474285613449
-0.02728667694228645
-0.011807180667586499
-0.002097303301097829
0.0739406157635225
-0.06652080935720654
-0.057920383592469454
-0.024265659501438983
-0.036328779981883864
0.016512125028307675
-0.11163720891064599
-0.05163071618379908
0.009666614529797654
0.005019232211985109
0.057047104842734155
-0.07153411226438665
0.005015684388703531
-0.05863945235144522
-0.16097515172903104
0.01820928733600704
-0.004837842385465844
-0.05422477027486934
-0.09246720623340642
0.0055799894024989045
-0.02470009160200872
0.0828094093310949
-0.01948546602831597
0.007376998461288128
0.008705268471742142
-0.10242311930707593
-0.008882660838812484
-0.030769975250444115
0.020143077973082693
0.030725022077925785
0.044875072150574576
0.01658738004152317
0.03159745459839273
-0.024449214233062493
0.20709861599191035
0.5730135583391598
0.9787350803067848
0.4607819135609695
0.10677203821983172
0.03824155287019891
-0.002805675800242609
0.019017328500490496
0.043254249308001064
-0.008669765461498153
0.005235167656610418
0.05731507132990868
0.11721741143055107
0.008984570830973503
0.043181483057534324
0.004749988035154525
-0.017211838186466377
-0.03434137187515114
0.027874015940012112
-0.00822135676636399
-0.027483566608637718
-0.0008208005372680234
-0.011833780863544762
0.06097187271393805
0.07093425354162101
0.027066610874450482
0.012671033741872265
-0.05355670641427699
0.019423679686717262
0.012965416478310017
0.05326698368535546
0.007227794412758632
0.037834483623445075
0.004548677735187078
0.04192532593605861
-0.04774607531652365
0.013523531585769187
-0.003933420861167029
-0.0041457946344224264
0.008255641624263111
0.028296624119533098
-0.024836231248793514
-0.04142217643944586
-0.015440105669115377
0.05606006381701491
-0.014640093817924839
0.00079305578328254
0.04119807178281328
-0.017645734693791878
0.005210417750757354
0.03600404957940744
-0.037032745072121
-0.07068317182166649
-0.012984014689301363
-0.005299647552443852
0.10121071276822496
-0.0874900054333904
0.15696854591005435
0.07967399511672413
-0.021009740679842646
-0.009384538969917634
-0.02691286889232979
0.012043478367519926
0.02152212117700406
0.03389827679463075
0.09858061068060163
-0.001233097198723919
-0.044182160191486644
-0.010545848276672808
0.07707983809317744
0.048660956556742574
0.005710753502985184
-0.1150091102959793
0.05954148603494889
-0.06038238686434966
0.06857059580485902
-0.05918553087988632
0.044577665176967755
-0.0329346113766678
-0.03529606827667405
0.05799956597836632
-0.01182726328833086
-0.018698221619878493
-0.007143307390543268
-0.007349309904291614
-0.0595518413039578
-0.0012588823304299282
0.024772478699378094
0.01912513720713772
0.05699988129283565
-0.10168137948839334
0.046342856395792206
-0.001041998438797817
-0.09165584985935334
-0.10734620470720034
0.015128223872208874
0.02408674808272329
-0.0943112941141059
-0.05739657219665718
0.05014618533967422
0.05396585893608026
-0.02945335507619154
-0.043490700738890165
0.08329557933347068
0.06825887713578171
-0.08363679700399573
-0.014121719467552593
-0.04150881437439813
-0.05617681876003196
-0.06594868963276063
0.04757250163175031
-0.040805347222584235
0.021036529977356163
-0.01222269132518449
0.03292648178247901
0.032652596290621165
0.027659158009591813
-0.02492694034946369
-0.06256229152105804
0.09477041690291887
-0.0505222141181148
-0.031879495488384195
-0.006641668012121471
0.011679860495980675
0.0010377698094616065
0.058507377068613635
-0.0662913629416058
0.035398154279131136
0.007767084804214353
0.04050517429404838
0.05070174342856862
-0.01958168877544235
0.024629402133219454
0.03581702802279748
0.047058283875783605
0.06604333984750414
0.04501598448479212
0.08452071109343534
0.006589617333661352
0.07405671456435588
0.01940875959044216
0.003752520297821367
0.03838508681063735
0.012542882131956912
0.020539728945220076
0.003902494371629702
-0.045377817252725584
0.0018979128005628025
-0.08332927857309712
-0.05174891069015926
0.11328144519633872
0.08603045427694643
-0.1069660452477495
0.09004008105685644
0.019074661783575284
-0.027215967506444484
-0.010046725216480751
-0.047841902570619814
0.08250545851938867
0.0819329423345963
0.01296749365640334
-0.04536149280210014
-0.10128198020603758
0.02716162241273093
0.0340553174540129
0.006972668647855597
-0.04751797899845282
0.03275834670893216
0.011144792324182548
0.0077041406038788245
0.04973091581516745
0.028136174694743533
0.0035954979419917225
-0.007731508817595383
-0.07818401460799605
-0.020026474429647514
0.02123216226392112
-0.05583870137685715
0.02223820981772081
0.020899295737176176
-0.03210238628428632
-0.0795244958259036
-0.0100468460327076
-0.12486321260353622
-0.022688820314834962
-0.013904976962349897
-0.038915041752464095
-0.05912754567345107
0.007715476616899685
0.05198684818242506
0.008136085659203507
-0.03391841194152963
-0.008478851334130625
-0.00024696949480403513
0.024617350813428772
-0.039368617103544
0.032067197945689054
0.10981532249111124
-0.004992227008546686
0.006745622246466798
0.061571009629255616
0.07009370818867376
0.01932563697334809
0.0344965798682731
0.08366246659267872
-0.07916076132305797
-0.021164845539140595
-0.008863560984466355
-0.03161508524214087
0.047453953145879635
0.02531357229330955
-0.03841413976698489
-0.01918043073960833
0.06707794106406056
0.019372929306538438
0.14253800608211706
0.43997437680779267
0.9283077111076101
0.49962114556951365
0.1016629755093557
0.003911205458874246
0.012947389916871844
0.06493723689727196
0.08064696379874166
-0.07606433676731222
0.0083856801213273
-0.04242828015270763
-0.019958598414148213
-0.013423111437450525
-0.027474339004901538
0.07622226465133629
-0.08442224535717806
-0.06258713936447854
-0.008957524816196232
-0.07940915960733419
-0.018020994984222535
0.006303278426312748
-0.025093847675317284
0.051229601548627324
-0.08331122850958396
-0.11672395660339972
-0.03248489813584854
-0.02504735479051789
-0.004522797816726307
-0.028849720853640827
-0.0788543932209721
-0.047561410460708914
-0.09515160582143198
0.02388671060202726
-0.06546222448861143
0.008559455480759303
0.0015691275949660294
0.024646169975284352
-0.10152376680679243
0.029423716855028773
0.1216960353384609
-0.15284564446162538
0.0029982405745642175
0.09702452407546978
0.05769342065673632
-0.03493007703607858
-0.014382286143931411
-0.09365692740504454
-0.013649464428979748
-0.014198780010868437
-0.023435347875171944
-0.03375378443003236
0.05085735687017956
0.04435704710622922
-0.16285300385824708
0.032156998785355294
0.06650884822164783
-0.01385708340062043
-0.05668338198291426
0.05321247949464142
0.021439623589494212
0.06835601947530906
0.06562840842617365
0.009965328485733886
0.04624033888223472
0.08479246048252145
-0.034268165404276275
-0.06793280759223402
0.05674720092205887
-0.03233087059344333
-0.04300190421800848
0.031464308025427816
-0.08969273304512226
0.06466654111698854
0.017995250550735215
0.027369400070640953
-0.0006958933496086705
0.006217774476194577
-0.14878999811222807
-0.019230889570344842
0.01446684221478064
0.028592820190782044
0.011404008100676856
0.11240427669172309
0.030738496838810327
-0.036611397967209525
-0.12446361636638473
0.11638870127239465
0.02258633417618053
-0.03307170313635185
-0.04499015318108652
-0.0247748631888225
-0.03341866218221703
0.009473495804320912
-0.03539013940625007
-0.021203276933920656
-0.014415271700269681
-0.005469461487683589
-0.12695417774935966
-0.05049686430253967
-0.024892751770924208
0.02822308975950166
0.03256111550452212
-0.05487391605649691
0.10394353727623579
-0.008779819364551529
0.0268628269532963
0.04288987339332484
-0.009448511582109362
-0.0281431982548145
0.036554229919001
-0.11850084387036082
0.029280584932421857
0.007126457917294035
0.028565604968488464
0.07642838405929407
0.07500819150142346
0.027166500175116105
-0.020091935617601073
-0.03482206855520653
-0.05264896831497076
0.052351319801928656
-0.04031302391846192
0.04444968459627097
-0.06008212002395638
0.010177280141451785
0.06301339328402648
-0.002806148537114723
0.03628029780764931
-0.07405974051240903
-0.05597257755919219
-0.04234646206043173
-0.04518551787722551
0.06678516025108217
0.042960090455563184
-0.014207198295171497
0.1592008578530999
-0.04231955222935318
-0.03468109809096814
-0.011248900859032657
-0.0375258082218695
0.05105699186360638
0.007758970682699238
0.061686483357265724
0.023106725997670743
0.08045077902828941
-0.022546480557505372
-0.014046605232874263
-0.011797762034322548
-0.031062346633062
-0.022046273900907094
0.016841894796871083
-0.06461007726560107
0.03931477302516208
0.012041775377181506
-0.05402343091191186
0.05150858359636247
0.0699741810543376
0.08660120478850053
-0.00566801953199123
-0.019561091695125644
-0.12576183080275055
0.1338981075390049
-0.05924247684688242
-0.013464912810506073
0.010680061582434992
0.037244466176364475
0.12956752184416642
-0.011978642009006852
0.03381437466483328
0.03608622948074608
-0.06254450337858732
-0.04407619974621088
0.07733220522563977
0.03824585891925239
-0.01827434789611847
0.011706238570634993
-0.07270038478802364
0.016761762859897052
-0.10007095792613237
-0.0142457669390197
0.00634665018698777
-0.09432248397173357
0.07372503429933197
0.01084439549329326
0.005926258299954645
0.0869621748639186
-0.013230492642244858
0.005232767043459933
-0.04118888026887687
-0.03904141708020045
0.12649780976541053
0.5099994680233745
0.9834036327007961
0.6024678627734237
0.08101407550667528
-0.01678553612042747
-0.013847311365255736
0.023504458184647324
-0.09719787822015258
-0.09767741629810855
0.049409451943733584
-0.008348402389303802
-0.007051922341590299
0.0003842626551407735
-0.014501847067978597
-0.024689920108981404
0.06253453449440068
-0.07450123826442807
-0.02173073263333772
0.08868681178075286
0.08243273525978494
-0.02755345626831321
0.0022491086513220645
-0.06833174283855287
0.0034878715246758466
0.048671160069128576
-0.02255028917565858
-0.036414010496802915
0.04382200954964594
-0.1142526961113532
0.007102184382105716
0.023675624388219112
0.0012620498902487173
0.01653262979939566
-0.02377300182221641
0.05989254288714734
-0.01770078504777184
0.0022655655853045568
0.0009000119885106783
0.01612320811014446
0.06057418150969301
0.023958219309658146
-0.05421581765777344
0.025812019369056628
-0.029794857731051484
-0.016228637027363275
-0.009946768592859782
-0.0598382637045779
-0.07434386966224725
-0.00834933956563279
0.08137509002310686
0.037880396069681466
-0.0036241412901411476
0.10660739966064137
0.0738199004590223
-0.020602892857333837
0.00668751771484483
0.139279844106653
0.0141202292735163
-0.007152524277546604
-0.0779957581745024
-0.018150090506250566
0.06280223920859965
-0.0614538372154977
-0.011145165293132071
0.08784243214187229
0.0016998883733306746
-0.05577126658963686
0.003321726550130016
-0.07149425890361505
0.04063354313121737
0.058715761112880786
0.021938903578033995
0.007241677707822827
-0.012767198593935828
0.13423310719412834
0.032959277425262896
-0.006816550722354875
0.015468413834572196
-0.06763502908860332
0.09212608815763616
-0.04280758148849051
-0.007331212480898833
0.07947507304353651
0.055227087022029955
-0.04489180324466732
-0.08833553030961014
-0.07063378705685562
-0.09122014104985886
-0.038771091183619294
-0.03310682670987615
0.0022660730424837097
-0.011841714862071723
-0.03936816728837361
0.013662239704968066
-0.03502357722473046
-0.026338134706583402
0.021484795684370422
0.04086657398241294
0.07189701040370221
0.07583264792993863
0.054239555445311054
0.12188094048842112
0.025710156419396408
-0.015705452527866145
0.07858491165119874
-0.0068271889120386925
-0.002839007057067908
0.011094159615040983
-0.06052751908468355
0.010587808288846349
0.023073015091795664
-0.026769359102705156
0.003352386390156602
0.011813300177325882
0.02948932291933968
0.03821076745314924
-0.05439313630710793
0.00010551675896406618
-0.058892280932092124
-0.02100828550829791
-0.003158457849217316
0.046281835888452166
0.04585815014793167
-0.07460256642403776
0.05488713146424798
-0.05110749417182661
0.05193169375910617
-0.009424968927609488
-0.04628303233121024
-0.04627668745863093
0.07463450176446496
0.0011227675343771116
-0.07732107587898138
0.020209888570242543
0.012977870421733977
-0.035269152992981695
-0.05209499191715816
-0.0876437191816995
0.02438090480248868
-0.029396420184420593
-0.005938735607439471
-0.045316080259170693
0.049331948731285546
-0.047723414678423226
-0.09433319093682993
0.023231869686141347
0.07249840828322429
0.05582972004376551
0.025276052932104238
0.026477407444190693
0.0042382033857485246
0.09378212551358697
0.018959153068283444
-0.05603656877120139
-0.10206199352750037
0.021956377636253434
0.009366099392601962
0.034143430072028066
0.06715547614178677
-0.030905584254420256
0.0018889926319108953
0.07674314868612381
-0.0585983850352279
0.039337859697095294
-0.0655626533138228
0.023605570715429437
-0.008926620193003516
0.002325782421160658
0.027820161659054515
-0.0050062165550402845
-0.04926521493477221
-0.005302769718819059
0.035369629342991565
0.025467894124709928
0.04298232730287357
0.017619665240649583
-0.022346098625373984
-0.0812728883399334
-0.012048565155064368
-0.008924750136664654
-0.0097374656935941
0.030730093450961945
-0.057139713357077265
-0.013334818954120337
0.021086364617481524
-0.03310810580033459
0.0899744824389414
-0.022620197540796708
-0.05489327716046641
0.0006567553386116056
0.05134252535625684
-0.1093990834800188
-0.032192644196639635
-0.029626419515444702
0.04154687691342718
0.030969279438864725
-0.02445141377958406
-0.030506632391443012
0.004417026635769867
0.02175638147884762
-0.010521850873173016
0.021190473573242226
0.01695959468060629
-0.004183458416903672
-0.01683626201299455
-0.013361287586351536
0.032747241181278065
0.021426411846526328
-0.020294848523178595
0.04248442947522468
0.005985107193831028
0.06841173145785881
-0.0017178377073647742
0.053618011593442996
-0.04072967993046518
-0.0957037086358637
0.09599594009974599
0.005029146062685359
-0.09000414651585034
0.020374703019973812
-0.000714776692646993
-0.05529640075431391
-0.055766519504101976
0.18452277828863528
0.5968328394279231
0.9987240545668126
0.5935443821719554
0.12240013564097196
0.04826983837841109
-0.010870587169412624
-0.014654318368873554
0.08744224977325114
0.012539049285831744
-0.022629761654456137
0.04886004126472834
-0.012029228853007005
0.008977224693491532
-0.009284078416430872
-0.001280081276184073
-0.005100680098866779
-0.09287954589767969
0.02160878600083046
-0.07689776129666266
-0.027970647441675878
-0.031259840249069935
-0.07198179988841845
-0.04322389043700691
0.07162993080562155
0.007770639171532401
0.03349936303664535
-0.07224921722447047
-0.027160902746626966
0.0389901734104096
-0.027730924145329697
0.0192086947244331
-0.05494221377641284
-0.07702265752011084
0.05722844887468518
0.0687312345708344
0.004319641920945607
-0.07103922424970248
0.003769841290147869
-0.015492007984164889
-0.019732984132302067
0.07435847001804416
0.017895040265431993
0.08148289284788361
0.04618590232661384
0.07754938589373614
0.06523515988707693
0.0709030158840999
-0.1530662505117619
-0.08228000932788926
0.03712184163748461
0.045722445390159155
-0.017049487170263132
-0.09151650614338108
0.07406217207270614
0.07389540179705968
-0.019093474784587543
0.09318037743051194
0.09093744919692084
-0.027952611093759423
-0.03555293620054014
0.0771700261978634
0.08948996361365123
-0.01147732630530559
0.003324941370659488
-0.02902294628424859
-0.025216676365200308
-0.016766920634116642
0.0393190937935524
0.030822051368894755
0.012726545480401506
-0.03926675142989408
-0.017688522975149803
0.026062303191735033
0.06071938092818335
-0.05475529114024046
0.02121290504062553
-0.03315560065861945
0.036368672484139095
-0.026265183587872377
-0.038920176791166196
0.013788970100933176
-0.03495450348180078
-0.048983681496175296
-0.060980987035978124
0.07319328659768685
0.019917211644089536
0.06150848739298357
-1.678536869450958e-05
-0.05275124791620503
-0.019560550087195823
0.05311249721550564
-0.1279724658141593
0.0683726367431301
-0.02332900484784641
-0.046270530719204346
0.012584745630354208
-0.08855284886613217
0.06188318983117284
0.10159938887550171
0.01826041392331934
-0.01710730372042364
-0.06657725447866925
0.05506159470350272
0.008554291826414859
-0.030429141137305372
-0.06108048192836053
-0.013063956040904798
0.006699464791478517
0.052980585295260146
0.07022074427045995
-0.05873061337084873
0.014820788799106461
0.07377179030248077
-0.03803846594848084
0.04651548161061795
0.04475483449289116
-0.03521925377899418
0.040491682988899484
-0.024358850032702807
-0.0156689475487652
-0.01566129126141163
-0.03436237995331636
0.044614156509734805
-0.051043481526399474
0.12867881665178246
0.05611318701286329
0.01094244338142798
0.04958478526952891
0.09048418065151348
0.039147858531324985
0.10192043963587599
0.06216598254791911
0.07266823053136391
-0.04013910608048646
-0.06206578013683298
-0.04900950306615748
-0.047759489633206864
-0.03806880639722191
-0.04024074047118692
-0.09353735155698151
-0.04222443325103476
-0.045922832809789205
-0.006159132034793395
-0.05115518619131687
-0.08122415188274894
0.033224845153026046
-0.012932508464353915
-0.08928536760366161
-0.005800562113687863
-0.051572490072293246
-0.050219386642330645
-0.08876377662032302
0.04142556347664199
-0.03108753194272473
0.06671244159018
-0.012041319089951388
-0.041169803452230536
0.02737569227609751
0.043400182403224165
0.011098505936603609
-0.020351169521239533
-0.006343352545024378
-0.011938754889059119
0.0035574158031638453
0.04781668279561756
0.06674295537714732
0.0014298941063588956
-0.0006163988128702507
-0.029618019868204656
0.003020605242223557
-0.06915435490483306
0.03239236130687723
0.008532991397687139
0.01037428834506411
-0.003930646101441187
-0.11535037621059636
0.09618525509792697
0.023148343112185207
0.0073825460919839095
-0.04982300434904572
-0.005127735799337145
-0.08105201842689609
0.023990257046338205
-0.054511159809239776
0.0066384197849127195
-0.0380303306642665
-0.0931005894137505
-0.027897820418184
0.01889082493572904
0.08424597446491461
0.03533104229223018
0.05162220690914232
0.08774921018072462
0.03898648472262253
0.06082374420949066
0.04167032413047721
-0.013411485265583709
0.010756071795950513
-0.017431463435685437
-0.04090249803505208
0.002446106889481335
-0.015864430680463126
-0.025362373622888974
-0.037617658826665415
0.026538266431650054
0.03416579930248183
0.420207933429685
1.0290642492644624
0.47961011388332575
0.09774579534376969
-0.11770665533687741
0.010375621633467976
-0.029776879437890424
0.014167913304031367
-0.004797267866151692
-0.06034299012730376
0.05807707809012256
0.022967182592502838
0.033939525397527835
0.06858190984373774
0.02968247639307714
0.020465767677940606
0.005192983297874512
0.03300366233780213
-0.053208781635005364
-0.009436015488502564
0.003200663105557355
0.009893740571594745
-0.029779324951254058
0.03973351164168665
0.06404256761062392
0.02066544028956542
-0.03240268573501889
0.04792475541111805
-0.005956351600465327
-0.09322271232861158
0.10557530433605083
0.016456237574652
0.062393573002637974
-0.004780705665944961
0.04844139932159661
-0.02694668179773236
0.12609353060193618
0.06429390126972097
0.012095155035232815
-0.07359804925312179
-0.026568504664250793
-0.03974753681758964
0.016469023634974402
-0.005213317710339044
-0.04596970528979611
0.014669145711116459
-0.017254080857624216
-0.033401137016405506
-0.07242046793479204
0.0035824176777826872
0.016273672704944963
0.02191016206421358
0.019781787998850584
-0.013975000741154263
0.07252974095797891
0.002479515348444499
0.0019642549850588486
-0.07816277445301122
0.02874647096552827
0.0716584383852421
-0.0021042582965628844
-0.005524893645077456
-0.09771293531240925
-0.12492272952826192
0.03369286803323495
-0.04324652140982697
-0.010130643679435402
-0.07291427354086975
-0.055453197570298575
0.02834489154855497
-0.003122011619240279
0.012791689867384038
-0.040574219409908956
-0.025571595062018577
0.026054754202744564
-0.0017379848922762183
0.029958146828790794
0.034093463526484555
0.010679751927696358
0.09078380467478922
-0.05757757595786859
0.03810440447156753
-0.013809478595145344
-0.042487119373082416
-0.12536304440291043
-0.04384634535858995
0.03577737199966037
-0.05262647864528325
0.010667296092390496
-0.025011175192778602
0.021528315191717093
0.03318644670629374
-0.030603699239755706
-0.043227207200280775
0.07960586845936102
-0.007682600747597314
0.04991424344281516
0.04671732941371667
0.06168088489214252
0.07766695438740223
-0.03146368592452905
-0.031689953902272465
0.008220550955914799
-0.09573579980046185
0.013067495401559201
0.12180670550725502
0.06976057826688889
-0.010088790636465169
0.004204652888902219
0.061887440130306004
0.031461235210742705
0.1745931415555814
0.010556964208065523
0.014868356304173908
-0.013302023447609177
0.02721476883482654
0.00909591906195766
0.03534180340957321
0.008926240393720898
0.016594200260839322
-0.12253911249873391
0.09026187784353432
0.038019095003854385
0.07212570541879836
-0.081650847678003
-0.029529066960998097
-0.04935223526173179
0.05088054063817729
0.12320993634558551
0.051937064457150156
-0.00640550820144146
-0.02040378316066326
-0.011709960645258604
-0.0421873449112683
-0.025055599303961902
-0.05709815979068117
0.06803306910158262
0.054520857663393596
0.016083070601251602
-0.020593517928757302
-0.03008695781587167
-0.0231055919804449
0.08916777820285916
-0.012573087281578955
0.02266062126474227
0.0877054268312444
0.05712639584125204
-0.0018531955595298755
0.029128358877858442
0.03114381024153543
-0.028865785028377295
-0.060759804874640444
-0.01654426446702108
0.04160691270713632
-0.047385415108680884
0.04806002481662544
-0.04695643493933355
-0.0281001871686251
0.027110027591675603
0.045164910571841674
0.04496282062563094
0.02818889147502597
0.03125505197794926
-0.03221715724619039
-0.027852045352555
0.0996561311773583
-0.024797355483195407
-0.12767988146336165
0.05570097981066605
0.036733524920919886
0.0025350333773516737
0.03056866775064267
-0.003297242712662145
-0.03362451794976289
-0.061914716999264846
0.02462824624323572
0.08336028407186637
-0.0526744613593794
0.08611243130708403
0.030662464884686463
-0.058591209896415634
0.08155873922101597
-0.035990569632041856
0.035528183067623086
-0.09492237201150866
-0.02172388181168249
-0.03191866047408009
0.029137455154482683
0.04285025522033625
-0.029706979240499462
0.02929331969508847
-0.014855495916765367
-0.04811172345035736
-0.030719568013653012
-0.030104804054107783
0.06655202654030594
-0.05407148792599046
-0.03314776981649937
-0.04691625793797613
0.06070045843752047
0.15459525881057798
0.4576974998098549
0.9981049536920279
0.4663307317576026
0.1532560303490461
-0.058952245214508626
-0.054070025070982776
0.032794959160137964
-0.0084181388222579
0.022324585800452674
-0.008720451074185112
-0.009264536205725466
0.059070545197937724
0.009997607815206276
-0.010336899924565044
-0.02795049802970806
0.003029807507093235
-0.004624949046697745
-0.057089812784346994
-0.005450083517426573
0.021691457741831375
-0.003706506865868027
-0.06929257542679498
0.010954958320362015
-0.01022966246899191
0.03385368546655556
0.08132205611747262
-0.014811351820187973
-0.06808566234135191
0.002882557628065076
0.008078880035531264
0.004259298596272844
0.02975991414561373
-0.02457486047249299
-0.021145203336544446
0.029410728239373157
0.021602892325034016
-0.030181251591038946
0.025356212123373696
-0.005346725721428035
-0.02746109218713358
0.03327814007644909
0.005706207601143362
0.05722393594553149
0.04282692022803856
0.08097384708387624
0.0675007072349612
-0.08238243248804968
0.059244723246607095
0.020859719588501687
-0.00012167477272217744
0.012332969802800733
-0.04377610197242682
0.0821892030699817
0.01528391598406477
0.0015702422662403294
0.04387741259364586
0.05694816543525885
0.011716483546369557
-0.015314081194022442
0.050812676239205413
-0.02062366663109584
0.037826827483733956
-0.02212316972906601
0.034665107040882964
-0.03147078861207028
-0.07240819602757066
0.00481407889960003
-0.04564525232195629
-0.07718924303658269
0.08217974211815549
-0.005408553777840994
-0.00994242213579073
0.09267002358026065
0.02832036322212402
0.057573849508350886
-0.030722053640403577
0.035421756820569326
0.023211421825072607
0.06048354705023391
-0.020162260688288424
0.009439144894728429
0.025920027574001876
-0.06194626010866655
-0.08748143642468247
-0.04969548162448137
-0.021440772290058762
0.016345277633703807
-0.00015956299280089513
-0.08831652265235473
0.036809865894265624
0.011001975216822916
-0.05983508217465405
0.10483062391506766
-0.10894624909893813
0.05332888716575038
0.04260820737058025
-0.013382146630711437
0.062322569209875014
0.050002123953897595
0.023672091491369528
0.003927458671908994
0.06241283897010255
0.09386990913110085
0.016518255685484456
0.026459362834471197
-0.00807327406818092
-0.03159961309539966
0.042629359126950365
-0.011932695096349458
-0.050494778377978645
0.05050054842602898
0.08524601025138626
0.04670876657051867
0.07397157143300447
0.051989721342704125
-0.10010907891036576
0.004012959177504748
0.02925077574813409
-0.024347285174927267
0.04520120265779772
-0.04485007791186636
-0.0032522134451239896
-0.011027102549026932
0.1053574437566963
-0.04194007809855326
-0.02840576265062235
0.07424160325303951
-0.09833476122821706
-0.05335068488959896
0.03283636423377692
-0.023698890289276957
0.11069665726954953
-0.005969191992589241
-0.01054590123193215
-0.07272065415520124
0.014515900351994297
-0.07008381986678562
-0.011640835556780502
-0.08068555629185382
-0.04789694041190054
0.05118216729330841
0.012308059233876498
0.005566568039244529
-0.04245056125394684
-0.017046317034664193
0.06721992665192333
0.10234664271454591
0.0753132441188682
0.05526482440687019
0.021956922128960804
-0.05269888709633319
0.09417255851459326
-0.035239777562178436
0.07868532678743163
0.005674138952889123
-0.004968195209330555
-0.020050399379394374
0.004396805696967072
-0.0020219459765803984
0.04217455426853609
0.06966853950165572
-0.06509563245504855
0.04102000009201161
-0.04805395629256397
0.0658036586002682
0.029675147810881514
0.06675586655179416
0.01781391978026968
0.015529407423605918
0.06575724412616239
0.05227546737960198
-0.014482702744435073
0.006725730689592802
0.00860726341162644
0.019246098258365714
0.033069577346951144
0.029482009896629708
-0.07688109464029608
0.006641486363817929
0.027973274241467862
3.6330038034457344e-05
-0.03912905215143949
0.019892847493519807
-0.03185448066711157
0.024791646740757612
-0.02336085924167089
-0.03992747961265292
-0.006995803866570734
-0.022639883368295012
0.058729847600390475
-0.007582249117620084
-0.03513926275121786
-0.0330834825188625
0.03831859404859567
-0.07157032058436684
-0.042989300322052386
0.06218641639828069
0.016873751367935435
0.013231961408720598
0.047061698369355365
-0.053775464399827014
-0.02676484692177355
-0.09570503211347714
-0.09059316227715127
0.03350655679592835
-0.033525108433740035
-0.011958496833294443
0.07493372216525047
0.034343595694682705
-0.11919332730715622
0.012475590797292404
-0.02040091720253055
-0.0577978597588332
0.07881032468797981
0.5447652370397918
0.9678881782865532
0.49143874199733406
0.07121909861252917
0.005237130796218848
0.058513524149201336
0.007694455336246205
0.03392262493349615
-0.04369006062796017
0.11842031070583847
0.010476905773953254
-0.07707495143999037
0.025624684387106703
-0.016854473321360395
0.088584814291905
0.061135640293733966
-0.06688116202941928
-0.04237473332553525
0.039027245416740936
0.0282739204919034
-0.0010138002484080873
-0.01728087408230412
-0.012360349597455578
0.04830235579706558
0.012681643838117146
0.05048243818031051
-0.0918822908083976
-0.0723134797670998
0.007910087431150695
0.013420331787954046
0.022722374300777132
-0.009345814569378288
-0.03601040409623866
-0.0005067866536791906
-0.044102408636079025
0.030350754270308984
0.023862864939165507
-0.036369884490075846
0.019352783229677987
0.05482130644833649
0.027610090138409083
-0.03089658539007666
-0.05789175134001498
0.033338998374644595
-0.019755976979264983
0.010975421286861022
0.06475876528271714
0.004095579705112209
-0.05455769763816677
0.011105787258822867
0.09325574089678058
-0.041635536525016156
0.03566813345723286
-0.016564928688106488
-0.06248286139760291
0.06616886909629012
-0.019736233641971943
-0.1104468027571129
0.0030187969908063283
0.011431169261405442
0.004516854039551268
-0.03278892805957052
-0.09245990611383481
-0.004333933213973366
0.02779942079160393
0.05820119378560486
-0.03347025859926602
-0.004663871016487121
-0.03528826680647189
-0.02584915227969499
0.010989128061297756
6.205243784884137e-06
-0.06868256005198513
-0.05071927151459135
-0.04813088697024101
0.10569103891760621
-0.06953104739137636
0.004899565517776072
-0.0016364725677886017
-0.06795161068885527
0.00882187065768505
0.07214831228994122
0.04431021478847006
-0.014321387935702479
0.049700230222714595
-0.03291594685324411
-0.09670416418254185
0.0027349231926337638
0.05466551468162492
-0.06763679446262018
0.008858611355445608
0.06585116134182822
0.08165947745919612
0.0268074777842297
0.03399711199683236
-0.07509598708449321
0.014003457783040041
0.0264423075095046
0.0348569910509927
0.0009704939632046166
0.0032729394112907652
-0.02023432864807291
-0.028551156023790072
-0.0732797026707472
0.029918736251369246
-0.0022499691094842625
-0.0249389113237391
0.05938300752922028
-0.03211662896899449
0.07185216950720881
-0.010619957900289842
0.03129638448865021
-0.005405833017080628
0.07764763125388796
-0.04723783575383404
0.08600470413500964
0.065649591949191
-0.01936722409087417
0.007742220716782428
0.007084294059631173
-0.049618423072042034
-0.013141272597833814
-0.040081640320836984
0.13450759131369117
0.02105259068001679
0.019652906822217736
-0.07635582163321389
-0.022752485413189315
0.027382517569876877
0.08072781657480577
-0.046170452091201325
0.06987772500863236
-0.09560143967595376
0.04431871464408764
0.04113845119773426
-0.008942789845357563
0.07729104099272449
-0.0060656308661634125
-0.051682271849033956
0.025984263412884498
-0.04579611445139339
0.00963133022315989
-0.0034834855702796153
-0.0004462393671536098
0.0017629067333671288
0.06053270755519178
-0.06798524517261141
-0.029038610045118398
0.06729031796063188
0.04782334647080291
0.006194359844857042
-0.021082716167978383
0.040796109176890194
0.03278260159025473
0.04959606840929273
0.06784597760419164
0.019519587080456514
0.026190810962663836
0.0026421561291181186
-0.02007907075162814
-0.010396648907699223
0.011176917239864366
0.029974975863283123
-0.03875320627687104
0.059892839387205354
-0.018055760458001613
0.017740791058568333
-0.0028613419559880885
0.004099713539084058
-0.041622899589319
0.025548304125398144
-0.06278949465869255
-0.02851006909854338
-0.02962355505453176
0.012363901719318959
0.04507170272738054
0.05333075086395659
-0.02018679826221883
-0.05531061900282017
0.058241316426589355
-0.02664225998385691
0.054287048209967784
-0.01818240722683474
-0.03343364736724033
0.001504983891628165
-0.06462627554916127
-0.03435840368901521
0.005681668846891066
0.011039707016254391
0.02668190073975645
0.09052065639014022
0.042783681159705766
-0.10437503259087236
-0.06153532711180464
0.014448398676435246
-0.0031095763301490203
0.0140026823827466
0.01302384782576696
0.04067634111823726
-0.04497029465353236
0.004459775169032061
-0.03236978632244745
0.013642911326642585
-0.03063527505410346
0.002243294614006727
0.10501888004648274
0.022042281830056774
0.13731404573662812
0.4324018999396124
0.9501941632968816
0.5595529540136268
0.07324333161532645
6.645341074628492e-05
-0.0017655417101815987
0.052341575060558976
-0.018554020495650914
0.03187881296637206
0.03306591770506816
0.014682317102779183
0.038120259329296816
-0.07279082896797899
0.0818819555708456
-0.03300889185334596
0.01673411709103957
-0.030954002625621105
-0.03378124490745559
0.036640213745035004
0.01934325739681178
0.012130917969009947
0.03628059569231703
0.022002105881203275
0.016392518321365193
-0.052611419935422454
-0.11706388603467754
0.018909689128951128
0.0076784267085978596
0.045353619328989105
-0.03293126777277078
0.03357855292119626
-0.047701225919348854
-0.034788158515946195
0.02238782605265081
-0.03900004508498674
0.07105166606966687
0.08650140326354527
0.04035596342570553
-0.08596258851060744
0.0661565505434546
0.019274400906828495
0.12117044207042696
-0.07970957841627496
-0.0622150357306702
0.010354502603765744
-0.007162064236540509
-0.017048125559664878
-0.03173327582956282
-0.04305127276513901
-0.0031630144508388545
0.0022958488165807835
-0.005576135371833169
-0.04761720286117074
0.05433563566698133
-0.011161280425103066
-0.031099037484976406
0.036827841759007926
-0.0045111462233164345
-0.014136716949897796
0.11591628312202154
0.14826448268413733
-0.05005174984732801
0.050425036754046186
0.01071445132080508
0.024209986959927904
0.019935523177863207
-0.02997642966926313
0.04395252861666088
0.016859104275063798
-0.039790696736247876
-0.009571175675575964
-0.024784398878754513
-0.05166365913412932
-0.027900027374456633
0.10971472364691288
-0.06531358995953145
0.02634906388164356
0.00281557588009764
-0.005980623704674773
-0.040407015291891335
0.09192539252626816
0.024400573031266234
0.059598635817630086
-0.025179852040882706
-0.07812860552838657
0.02125916567279071
0.03635064386687218
0.018045266906990834
-0.013221842108516941
-0.025255157578121384
0.02349316252127085
0.005296096117305642
0.07969072650397771
0.03596773547264813
0.07045623017189138
0.040578351661326444
0.03028129511086948
-0.05049986218075079
0.010162743088668297
0.021760925401494102
-0.04776256523310582
-0.07481012526168761
0.008038726745816993
0.0009139214064823697
0.03824500506023064
0.029048417249791444
-0.08010546918144841
-0.031833620088648706
-0.0014803037458637172
-0.031865225772015476
-0.015067232854439642
-0.005239062490381234
0.03048841834409325
-0.07141798340764136
0.054402522304249426
-0.018525016522659726
-0.0479658081071455
0.07555184317323886
0.005347752394021477
0.03676203670919323
-0.002159298380785865
0.027609981640649768
-0.015991615166157165
0.002444718313269994
-0.039021827437828165
-0.15945711424524883
0.10412854432714376
-0.11750281643738487
0.032829699438073456
0.008886710121570437
-0.01944875113286776
0.023567384612401196
0.06256268303580627
0.07148531676713671
-0.049982414952445334
0.016419317170840903
-0.041186850144142084
0.050672071859628055
-0.07770342176117245
0.03506427013327603
-0.004370537036729577
-0.010978694744417138
-0.08376082881192942
-0.01712711580196746
0.14737954212029977
-0.04541093018227764
-0.012239059704615484
-0.004812340954051821
-0.030563253717932178
0.06577928584179095
-0.062279324237174985
0.0516136045104813
-0.0005241836157424999
-0.013552509105025819
0.006519744218225565
0.09708997575077931
-0.0021694940752251288
0.05032954015945671
0.040110682083411446
0.0016285641235032657
0.02059941850295277
0.02871891271005473
0.03970412687196981
-0.021884483937415055
-0.09227228464276083
0.02107781040039185
0.09853875753189303
0.05032725817061852
0.014968898168303752
-0.03764116670464151
0.007937234758728954
-0.06276686617973698
0.017854062626688885
0.10105181634001514
0.02353023713038427
0.010539814204844115
0.06937368320941967
-0.0052615552328193725
0.0013349289434615263
-0.09995955372640629
0.026815172405946226
-0.05835106743066018
0.06475797386670382
-0.0879594247042953
0.008200234956953247
0.0185303178774289
-0.05899234510680193
-0.035937916920013545
0.048822067715410214
0.042023021683419086
0.04262252317010998
-0.05631686063935876
0.012708989270321536
0.04876278112903318
0.028416214445506238
-0.018097756097123364
0.08037759257913872
-0.05909471372437889
-0.02602913934307695
-0.03561294135299755
0.10252705126941222
0.5224352368447441
1.0892666785065175
0.4910864016175247
0.1403843626910521
0.011513378672121134
-0.016697616246824542
-0.0061255687667803385
-0.0693185536285613
-0.008911330034138758
0.05459179571619974
-0.05864071107483531
-0.012445041301995141
-0.05298004591515271
0.05242821807617348
-0.021627162238799933
-0.06932355138788109
-0.08873630250963277
-0.053914830836837895
0.017779792123316818
0.10621305459616777
0.0017561270338518585
0.07484752148271377
0.027186293285848918
0.023972765845072033
-0.07023160635193486
0.06429409216040943
-0.0035651828194812048
-0.03371766640772594
-0.06923801435911008
0.006399329942066043
0.004789148960195045
0.06151480112172202
0.008777030297290586
0.011738964850811516
-0.004768820404547871
0.07804070137730479
-0.05503489485572453
-0.06750514127652783
0.014541694665877892
-0.03470617580030901
0.051862389685849844
0.09420966984447258
0.03566618914632385
0.0445273642729707
-0.09172388770525808
-0.07385211049858617
0.05320187083118899
0.04663154385542653
0.047828091005680744
0.01736574694488371
-0.022057806376938247
0.08221768547927366
0.04433208236794818
-0.03716040765194779
-0.013138709126773269
0.061076633361057064
0.014589758303154093
0.03805338803343286
0.024717150574644287
0.0015773735942248707
0.007929231527298323
-0.05638066258779439
0.014759379724293635
-0.017246739902069926
-0.03917053022025293
-0.0858233628961153
-0.06472686199159423
0.04494731952229343
0.03409976378299124
0.0005033797574683289
-0.06067199961800971
-0.10640909161522588
0.08127391564791694
-0.05903023429018456
-0.028992870827544728
0.005017528941123097
-0.050237901435718005
0.0200104081638239
0.007950704089624245
-0.009378774790037413
-0.03638855045594056
-0.03308964580570103
-0.027333964551903712
-0.02161151063639545
0.04334992417676214
0.002035562402554612
0.0025766889627262756
-0.04877087807365949
-0.04140743673592625
-0.029637274886916417
0.01668398308829725
0.010081152604348756
-0.034425722803042846
-0.07048889702320522
0.023080383730582757
-0.03140248197050318
0.016940351357266372
-0.036942853604463574
-0.013706167215341757
-0.029891504281354883
0.039112413269451085
0.004402469347028289
-0.05632361008073964
0.07746164965158711
0.017306873990290777
-0.08692925789131606
-0.08548118672295091
-0.008589094311198819
0.010275383364666666
-0.010574801148693958
-0.003561435105083931
0.026844821510260842
0.03475880023271006
-0.0034857351802749254
-0.0023377310795876676
0.04229727103411466
0.024021711189625417
0.016160397042288353
-0.05618676308607317
-0.06903957155293397
0.0014588798245794572
0.11207134014713338
-0.08507709289233478
-0.021672960141945835
-0.0694058167126402
-0.023551610246989558
0.045701210407698784
0.05801636772048844
-0.021181669528757364
-0.005472807183792938
-0.027931559587630835
-0.08129925635206826
0.017178084845976885
-0.06582605668265476
-0.032779951232524605
-0.029158369775438217
0.07867513452392033
-0.061119056786357345
0.004758344143606104
0.03245255768323619
-0.07896083779925013
-0.06335449896905306
-0.009180223108879454
0.02277106102027096
-0.013762741624472517
-0.10768744859551747
0.002758190849056623
0.03441139356060726
-0.03014234203267246
0.05262825686228199
-0.05276945765926025
0.013519259780085014
0.060127165502178594
0.06091752474375777
0.005970507196552494
-0.054753908807650103
0.01815358921074449
-0.014724385596347481
-0.05998319256084633
-0.022669013931380894
-0.0542413608790299
0.04263778368784135
0.1467868202903033
-0.04188595197546455
-0.037446652346349356
0.07385609986040664
0.02065093984721873
0.0830847181566159
-0.024242106627383884
-0.08655855345714636
0.04019008229117718
-0.026019603378812747
0.0875811803757244
-0.06098334889457363
0.0744936523885909
-0.032015014080050315
0.03285610144041442
-0.0620243503916417
0.13271442318682827
-0.018790648779571695
-0.01037958421973504
-0.006903913243262252
-0.03299694026374868
0.04781539334886581
-0.044271315950310766
-0.03460718865510964
0.05496089911045152
0.013193003741225416
-0.09183823260009022
0.035762807721797525
-0.00881161649622486
-0.0027492049638915416
0.03362789116898953
-0.01520608275740678
-0.04821875084305301
-0.0038315558353876956
-0.04434512726413794
-0.07699030752408152
0.0448159247180783
0.0798395437996161
-0.0386148368878171
0.046957764313606695
0.07915768138373835
-0.06759059419977541
0.07302131923685733
0.09411295438854313
0.4605939914435669
0.9835095267699224
0.41199060565213497
0.21297372894057567
0.006867077119780259
0.050496834351321074
-0.011875981072204837
0.017820313174072733
-0.013485448796681754
-0.018533244152507337
-0.05912564998226349
-0.03758977921527112
-0.04192746192410195
-0.0032339776888282087
0.06681925374269097
-0.014645534329244165
-0.04940310863415283
0.04468855364088725
-0.009457338914747808
-0.11428501931379792
-0.0828366869331633
0.02975745683548771
-0.013978074467115976
-0.07951009035498983
0.01666938019562454
0.0015179895619150173
0.004477273549840535
-0.006391729852047569
-0.04469403925371926
0.02947885110570575
0.018974430697667237
0.05308597493502986
0.020325099820832967
-0.06624195587859273
0.040962722317578394
0.009410194396166947
-0.09486393035246773
-0.09804916750859977
-0.051455655668168655
0.06198399737817233
0.020820074148688982
-0.021397915986024613
-0.06226105136532169
0.07787738386470522
0.011090065179991018
0.08399713259024666
-0.07135763996635333
0.05617647834845563
0.0740356074382039
0.01106651999783562
-0.006138046734224602
0.03648455667601013
-0.027548301586807874
0.03805512420106616
-0.03541532596552109
-0.0947270634822749
0.05388296927181511
0.002681189610022664
0.018417985755892596
0.029899750780890612
-0.03136478273130626
-0.04722067312591416
0.02442329469379307
0.026826475723824402
-0.02831011590542276
-0.06777479919999112
0.026212724175275516
-0.020555336457463963
0.08963907246283916
0.05480682793588231
-0.0566858825550052
0.021690226949663383
0.0498313772826481
0.07245318124326691
-0.051252883046239456
-0.005172874454573883
0.00856624167678993
-0.05991519596590448
-0.06940226397965603
0.0321990418948164
-0.05326249469523919
0.031858081185400726
0.039770433288706976
-0.0028681171422820836
-0.024178886719892233
0.0010783395931370037
0.00044020799465074845
0.04106565074202323
-0.06562763329088019
0.07861078507247604
0.06258364941527039
0.02222816095404826
-0.02176259497768373
-0.04672894112104763
0.00021791696427153297
-0.028143750068936536
-0.0667015385999116
0.015374042735233073
0.06642650660120088
0.04811413513609966
0.005028162631308929
-0.049747374944511216
-0.00615269912388668
0.07156714059946628
-0.06674080612956468
0.08456577453042863
-0.020059707222491237
-0.04038875181570933
0.008199183088203211
0.0031238498692000693
0.0004119598152037143
0.11917479437516842
0.04485477490739242
-0.06222121378076854
0.014967695582361329
-0.057985199669479265
-0.010771005837793205
-0.03780449806346322
0.033189739216106136
0.02924083379842577
0.02782189306201635
-0.036253791859866095
0.014213560359462064
0.0384972382996712
-0.00854357619270144
0.006290650868885819
0.007729098533693132
0.049890939419470245
0.011815648840018166
-0.08865434519565676
-0.004730318984181447
0.025670110964725837
-0.008089067167738257
0.04753456194214819
0.011521215036303531
0.001835237883754315
-0.034140456293917154
-0.06628002867647746
-0.014649934096176355
-0.009374826558124768
-0.05110875029704453
0.010329190160099219
0.005848965624218598
-0.07443636136527054
0.03990458576982596
-0.04151369074406568
-0.016430142351330012
0.10015242307988254
-0.11901121753162941
0.033491894190056805
-0.08477622925583045
-0.02162056816303649
0.08475490972284783
-0.05244779425977247
0.04803856787673484
-0.0992626459794357
-0.022066784206651462
-0.04589068754368014
-0.023021650597541483
-0.08292856234518585
-0.073907349992782
0.011469289296508402
-0.02844839817186462
-0.10399521618175936
-0.004201874267174277
0.018809409016542072
-0.04296178554430727
-0.012296061462432298
0.07768680332680913
-0.0774631241757896
-0.07790224199075957
0.08188624143427584
-0.010481965054491312
-0.0226620951591291
0.019440059685233588
0.012680259393186247
0.0018648318018069097
0.029655684693862695
0.03506274904303344
-0.04767765125425214
-0.08825736775293191
0.026357581234191393
0.07753978653503223
0.02423493856436334
0.026875721962984808
-0.0415120360651723
-0.09050896303754258
-0.03964837371524901
-0.04528575006431765
-0.09263514257588021
-0.017160928353003334
-0.010475368622077798
-0.0834604090627867
0.011763281118281123
0.004449499035959508
0.08061283950961558
-0.031553525009419235
-0.01226753377361754
-0.07869465670959969
0.023748107857932618
-0.027668237706844026
-0.018528191795341088
0.06765044656698106
-0.041951085118692714
-0.047560847707887384
0.054054898082941054
0.008055186581328939
0.02856546538762461
0.13656372934280805
0.09957251245364883
-0.014450070313802663
-0.058357034788817645
0.18408418600720985
0.5768334096211579
1.0087017390869022
0.5244407007339065
0.01758289260030342
-0.013299872481936535
0.03574761937797015
0.001147114564886171
-0.053535394206543546
-0.10280936726867934
-0.028077361845050705
0.011861907292641367
0.01768373863632352
0.07129728807916318
0.010181443509167417
-0.00265877500934072
0.10852262045030853
0.05488341989011385
-0.01787229623605851
-0.002388317918854411
0.041731086324852035
-0.00837566788790834
-0.09234370884921783
-0.001794239757755894
-0.01391971295524239
0.001958997597221221
0.09096931171467969
0.05513165428148338
-0.04523708508412116
-0.09880654894400198
-0.1322207530664877
-0.00858178190883793
-0.0011221119161750903
0.014980617431738012
-0.06333975552210436
-0.005446041786682271
0.017221720129546644
0.15544723641597993
0.025321824251922427
0.053651753920413395
0.034987679314231315
0.031295323785386346
0.010206577775552858
-0.052551753668144734
0.0158429734412399
-0.046090946408039034
-0.051276417737253735
0.01828824484313437
-0.06098148227134087
0.031131079468439477
-0.026978093130616023
-0.05574771251763066
0.04008699345679285
-0.01890180402964468
-0.037711832118086985
-0.08466974635457421
-0.013412321016214862
-0.015862678995108685
-0.05947933977248787
0.035173099890785674
0.016706411811448003
0.016633567668328773
0.09414858095146955
0.03141641297650867
-0.06902056323500948
-0.01432438854902462
0.05661197570842328
0.030474799572274332
-0.04230867924925576
-0.02011704548041629
0.06834112014963299
-0.041032267247325595
0.017302025518349733
-0.05353194284165831
-0.0486751621813519
-0.03098179121987192
-0.012348521891218357
-0.0042520526968805
0.048977392980284175
0.037443954112695875
-0.009275704063251478
-0.025988951259551897
0.030994882130402707
0.0038090013838379105
0.06927193301183741
-0.01676890628259958
-0.008344514761084297
0.0015458742534400838
-0.03878387986186821
0.01398411466100389
0.019165722823672748
0.039763759028254214
0.023794666066841982
-0.04594498572754638
0.0664456287136199
0.03519403872595606
-0.0783527467625621
0.006498155184737552
0.01743453844874807
-0.05541350278413498
-0.003683700106887981
-0.062397246736811456
0.03491216663493649
0.0035567090973124566
-0.05545674811096332
0.04828170084189541
0.04185091640760963
-0.054470126308373584
-0.07759285653020065
-0.05513444735798839
0.01993227310574609
-0.02137068928549072
-0.11754705461283582
0.00084218105263652
-0.03119898998286143
0.04033102019177487
0.0165309872800878
0.02164705605482843
-0.07005400573656236
0.038561358742945945
0.044762675784053824
-0.003441018932492833
0.011250844051209788
0.018005313169917093
-0.008550793463824057
0.032971692653552126
0.06072398060932557
-0.005137486583394453
-0.0460889461670988
0.047994782675312805
-0.07024093477916395
-0.022601116331362504
-0.046808102309396665
0.05408211134493432
0.0575433367733765
0.06658861862138635
-0.02352831632279205
-0.02508379864621655
-0.01952775023278307
-0.029615795908737926
-0.04381540734000294
-0.03527351222337246
-0.014885194311575436
0.045542291905068887
-0.01277818228125096
-0.09712714740111461
0.04795671759288436
0.03653187625653119
-0.029612826462408745
-0.09597434060529472
-0.030611345570177157
-0.003637932244111023
-0.05302680451276605
0.013619786158342235
-0.012523128477338608
0.03392017421626104
0.1302363873950641
0.01448177685127198
0.0034826199352373174
0.017189061489007514
0.06400593997606945
-0.003551900146892186
0.01765917667338014
-0.00895841520056436
-0.05274518504436862
0.042388923273190035
0.000342705755305007
-0.005608110256929948
0.049447490487160295
-0.013640420848730246
0.01673518031339914
0.03970335945590544
0.019227602684489892
-0.03742954862185882
-0.022447400127446712
0.04193363844296792
-0.14901647972055507
-0.03188992108649712
-0.04151881154788195
0.009723002679421902
0.030773983857103074
-0.04798198632768627
-0.01598608709400484
-0.02936233390511892
0.03214252251948901
0.05115598460500488
0.06449243533929627
-0.0275048858206417
-0.06818847187358618
-0.02028301649079188
-0.10136917027904523
-0.037878719873054634
-0.0219784965375263
-0.007267212606918371
0.042380206041331275
-0.05324942729160297
-0.022898795415640386
0.06322452204464095
-0.03337828473175477
0.0015562337136489058
0.07881027592582973
-0.004516397624553693
-0.09305614679618596
0.008636130291526068
-0.013546769714733026
-0.05595110509248085
0.04192093439794161
0.07882504093365664
-0.06959161978581267
-0.10924036035838967
0.016279460071317045
-0.05921131768567374
0.0011158968867672051
-0.0854405153506906
-0.02353461833991982
-0.05023218757414252
0.013833216905393875
0.05257450496905693
0.4977521063932788
1.0379904424051092
0.45884697396394397
0.10188820972423085
-0.05409755789214257
0.06659863709614715
0.001576207487362767
-0.07472878416870382
0.02698787914793965
-0.054094275889562296
0.016408818266089895
0.031431801276761186
-0.07916526426832393
0.021212820774294445
0.04700579941159262
-0.07627393686948408
-0.0771875810896897
-0.01566146046420126
0.01754706916786111
-0.026625868389318394
-0.08993086953357177
0.022332287176032906
0.08259811357124797
-0.0058541537104475775
-0.050214827616365566
-0.014073859729248812
-0.07065733887350788
0.0718780026123529
-0.041392933408600674
-0.028670322060699173
0.07418447618731625
-0.013187814295518031
-0.012848992493760895
-0.031648153443266595
0.002914762710781981
-0.006779235951131349
-0.07983502023283129
-0.034573439032521
0.019481769581208716
-0.00749773218638871
-0.08187891006177027
0.004977455662192638
-0.00764585868717577
0.036278931376523035
-0.06326963054717001
0.0031170386086127088
0.10019195674388229
0.018415720831173866
-0.02340067100762426
0.017521464779049666
0.010741298861058908
0.027581473754085473
-0.011099895540911547
-0.002220560373067892
-0.015699329483902624
-0.043619791265706774
-0.06146669527599896
-0.033602811929981595
0.030189288387934762
0.046756191602774104
0.021470177969474064
-0.06074765194806711
-0.07806591765939412
0.016694232806723257
0.024645340145540352
-0.058445878558493106
-0.017636962371053427
-0.03751034207293544
0.02345060250107711
-0.018863999503460724
0.03838807133475777
0.030091979643068048
0.006890598003881101
-0.09906670958684237
0.028528209636890886
-0.08831266785281607
-0.01615330942560237
-0.057426046178204626
-0.06796510592935812
-0.028510737672666233
0.02156183035491217
-0.014608260729473558
0.03660784129412257
-0.008569808641602663
0.06255340300006068
-0.02261278848293286
0.012527081980244199
0.034184838186570844
-0.0337793726357249
0.020548787630913223
0.059587195810661645
0.07613394796140321
0.0048365716677604455
0.035233892285553646
0.0071802756635254445
0.02422829450123004
0.054952943197184884
0.011013419293555319
0.06288651288289435
-0.05264696652069049
0.03348647162227608
0.06630537884737941
-0.025889505067708537
0.13901156824195543
-0.062296255502738346
-0.05997529620790987
0.07980673859686739
0.0402210750355482
-0.07497158949149685
0.015270970956466954
0.02819405767155922
0.03665968430744741
-0.023402403938216236
-0.004931040033045484
-0.07320001914738021
-0.024475643984490314
0.004033109984263632
0.019890257528373256
-0.0521334589181025
0.043674145904142384
-0.042599357202262475
0.01161952071099442
-0.01039008181540934
-0.008924128320697037
-0.02979389463477712
-0.008617368083688737
-0.04557844958538223
0.006734402182874523
-0.006680298945353928
-0.1454539037499207
0.09923893619682228
-0.018815009156376624
-0.032819886214232895
0.06503664204098712
0.04331313236999332
0.030865164234616712
0.0394674355171566
0.004344940275599696
-0.06732789929935888
-0.041142135180347844
0.08157366995134574
-0.028888453091415647
0.06330294255199655
-0.037487068019651945
-0.042451959184483606
-0.018554484316967722
-0.035301947998806114
-0.0419380986815721
-0.01784189336227472
-0.03126570543423927
0.03366889856877169
0.051820680756684084
-0.053132641674437334
0.025639114853225193
-0.07182962241205637
0.046175313096905396
-0.002479689952303075
0.01968091556198319
0.0012026620686550835
-0.07568070425929323
-0.0686672267012604
0.09355152522789541
0.08810185590495107
0.052710076358236116
-0.035387826250292895
0.03455618041076851
0.0004645984269262135
-0.07819876612850327
0.06525788347063753
0.019709911873163267
0.01928417566493919
0.039518354984940336
-0.0019559247518663118
0.06534697891510564
0.02190025429845965
-0.069765041943459
0.02269232820543706
-0.008101332345304755
0.005733570892215505
0.059531116598645434
-0.029415788128898154
-0.0011104817605089507
-0.021267650123620835
0.01768765652762141
-0.013549172920255623
-0.0156669445463804
-0.030708432474917908
-0.0718603281090521
0.023775374707568436
0.4558679336283203
0.9959855906464717
0.45114448451786643
0.07559307942394627
-0.16851300555059562
0.019708364479643532
-0.0847374032988153
-0.034314827586349426
0.03493120686463315
0.025966784073924165
0.03404610848562575
-0.02251191239463167
-0.006651158051059387
-0.035911879805771894
0.025006876762538856
-0.003294781421108405
0.03414106145089649
-0.025492422652845122
0.07981405461562616
-0.05821344861473785
0.05107248102833575
0.08970014146030249
0.020151237314495366
0.030405995483929183
-0.0561880987749848
0.09875813784335348
0.09562238558240814
-0.03104068591300875
0.04218886991543823
-0.11393610116885036
-0.032292211738027946
0.017042642950796046
0.0111823303427005
-0.04271411229820814
0.01636496937884342
-0.13487069588929076
-0.004557502691247643
-0.015341418960040362
-0.08098657994245782
-0.015065925840529083
0.0031259237899740108
-0.047666790349534874
-0.05844865254978089
0.013147662201046718
0.007459683485445037
0.06432973174229921
0.03802694142457436
0.004479111572706201
-0.05588572180356092
0.08049148884846147
0.16026424434395115
0.03568891299373044
-0.03449866437571737
-0.01553147360121164
0.03867114028046499
-0.07812785704196873
0.07443941641800846
-0.054392040254496565
-0.024245606415434103
-0.01662176260200311
0.013516405135582575
-0.07064544674247622
-0.002201274511391758
-0.04346754396211436
0.010642586729105688
-0.08301640397285005
0.0015022966021779717
-0.035344657344942736
-0.05854242873413904
0.021866182046727797
0.04735780379494416
0.043536749610417355
-0.10780352127711752
-0.04495159641884272
-0.007293612056945362
0.08320940185129955
-0.04747662093065579
0.056460153455335754
0.014009737548534216
0.006318294820896357
0.05169553893339312
-0.0029497321044744586
-0.03809680924346437
0.018828222972318114
0.05051646418569723
-0.040201657684032055
0.08861601101121663
-0.015562687791190697
0.002966868609540845
-0.06591986697796245
0.00018517085764145706
0.02417037774313582
-0.06616780525082895
0.05427438414101028
-0.06645276707732191
0.049068652365104
0.00970150977231854
-0.02353609900040503
-0.051981037593217
0.0810541501910869
-0.09238964459219202
-0.08356947078386018
0.001152883219895414
-0.028424586076816607
0.04000881037532025
-0.014364723415272057
0.025229874894593152
-0.0002223776416107045
0.0306119185139581
-0.04527388953437497
0.07424327905149927
0.0008449243378810612
-0.013346719544408706
0.024435563920157527
0.0817093728727129
0.02089360871767701
-0.027815764350808077
-0.04324618520670199
0.02441899090261264
-0.0566889076653364
0.06316914098971634
-0.054184355920524944
0.046143566103527565
0.001833624056887228
0.01542777284209976
0.06391729143177953
0.06515795976677757
-0.03077433745052384
-0.033966870135197544
0.0002216951125388108
0.0943407914628866
-0.018281872944475596
-0.0014055013386362707
0.019350174203706185
0.0058476543759108665
-0.019772219154556177
-0.05665845681297513
0.09432285988604781
0.06664847582920679
0.0009365321387264585
0.04467354394142192
0.04095327257680764
-0.010719706124024495
0.027992308204771783
-0.028589782952672685
-0.03525074581642733
-0.07893313980048829
0.011456173239939882
0.02823256182850674
-0.05633208158375295
-0.020569479066485083
0.05973694521653529
1.0910224202274163e-05
0.030503459958115316
0.08031337712917945
-0.02177511081486885
0.0033794118509969484
0.035808698012003704
0.002402719957456237
-0.012142378407715287
0.05538540490893963
-0.021549427094124374
-0.015733857632006878
-0.04143193650162583
-0.02438889913228112
0.10306546433209361
-0.0615550584112472
0.05777605123564905
0.07068990570054508
0.030074263161088213
-0.05491036429209441
0.11039336977524644
0.005437136076449283
0.013871089054886154
-0.13142625250706644
-0.0034011375889137097
-0.016585938159478727
0.06365448953987124
0.10740422883224232
-0.0647718457279148
-0.05156592436693089
-0.07201778740829147
0.01741511878535012
-0.0178059097268311
-0.026260135891566873
0.0066693937114915836
-0.027351624397012594
-0.009166294296994856
0.06318052287305075
0.029195507003284094
-0.03198419572216022
-0.03001633580227452
-0.08020581232194579
-0.008643400360771332
-0.047472542963779917
0.1097866199618871
0.05407480756682366
-0.0354550085009133
0.0014110799282367444
-0.018414947422646922
0.05240458355682386
0.08064846259686322
0.013136746128443481
-0.05655924993770568
0.08220113226595817
0.07841040909402885
0.008434888292815175
-0.014619374984678125
0.08509808737455811
0.0499065496136781
-0.060932393476472724
0.18239777190281253
0.5126733049246198
1.021818530966438
0.5398289897078685
0.02993183946331744
0.04969386999472146
0.006557135775060369
-0.04630064340665754
-0.025852103214625385
-0.049857369324963735
-0.01720525478346462
0.01369575009593496
-0.06396310851165081
0.025250143935239108
-0.013030234620805102
0.019570866366911577
0.08636216897951912
-0.031571495546540866
0.10971592962694046
0.029960935987950712
0.01790474659910588
0.0278534664098095
-0.021589925510970134
0.03309186219589184
-0.056197758638848655
0.05880742818973474
-0.03014613938655149
-0.048934795682847226
0.04894239874071943
0.010973643972829092
0.03592726191667648
0.038883341938440764
-0.002341698939037106
-0.025436652189362932
-0.027827531625087228
-0.07352962790081687
-0.15505971042462882
0.035635985396939865
-0.032584891174705366
0.053353966164881056
0.04300718649663632
0.06970404360619249
-0.021109146366571747
-0.01438440762923721
0.01694447838463202
-0.005270627967319041
0.01355017203647346
0.04442932385062021
0.014516242870314633
0.023399208406500643
0.01283452990241803
0.036050591820350406
0.015196379421477084
0.011297954303889267
-0.002970522590882668
-0.02501876283583316
-0.044761943609385034
-0.05668447177033508
0.019053753504251446
-0.0872179375948205
-0.02141156376947616
-0.025408878207081584
0.014599467438881726
0.020106913630674874
-0.02350701998841803
0.05551855027856384
0.02436184723164954
0.00028488124243446623
0.06937018992302517
0.05689979121533169
-0.033520622373878727
-0.11696032651989943
-0.046299547881792386
0.012034311606935051
-0.030349892281385266
-0.005446372437477526
-0.05026728559064822
0.0006294708653319722
0.05463954884081369
-0.07441356094195065
0.025293494503434433
0.0573352939283653
-0.05896936689361674
-0.03604474662557166
-0.05557499956266433
-0.03986063401642628
0.018380021479398507
0.0367757704890858
-0.0383172964136493
0.02503318425119764
-0.012506461005185255
-0.004040185714720322
0.026993207098842426
0.06681386671638377
-0.03879697770245244
0.11039633381640573
0.054341110274854915
0.05156667440027213
-0.002774524897449945
0.057345969648969985
0.024404837939291345
0.1273702912046394
0.016696083003235673
-0.0007617907230733854
0.0857058713371499
0.054825196829616056
0.08392065321623127
-0.06930291816608497
0.007772989014721828
-0.055273661245800444
-0.099671400514152
-0.10131331428383827
0.007504846440540804
0.0065791619712147285
-0.08795081241082028
0.013400904092886932
0.04588117468313347
0.062570326837078
0.014967643347920199
0.04307584688618515
-0.0668537593706104
-0.010455442204508314
0.04364028433356726
0.03754348436840191
-0.0014430509579433331
0.024046956562489858
0.05633971615777701
0.048576994161719615
2.3957721390964417e-06
-0.06765630431201237
-0.02532608702283089
-0.03858539274634828
0.04468658430144312
0.01809815457066795
-0.07092339300800342
0.004503813699309397
-0.00047719192038707327
-0.0052399487944056276
0.05049852342410513
-0.07082183727975837
-0.01232281147105693
-0.029820464306280315
0.02967013762446525
0.07458680441897383
-0.0952890158185912
0.03408148402929454
-0.015835266244887444
0.06603921364275776
-0.031876960515718034
0.04518716241375321
-0.03293673364551646
0.08250008113882586
-0.014543983117382723
-0.01641472414761477
-0.03705843760180708
-0.034757415778078234
0.06166934594257126
0.033756540773510445
-0.05897237486603993
0.05086754566851434
0.0002959154264233625
0.026643576803304116
-0.034722961743330304
-0.06570893622990397
0.01414535059181265
0.009194977758629303
0.029385519339518093
-0.06059032528833226
0.006781200796216802
0.004989499250060577
0.027542178318867263
-0.03930108596344248
-0.050875316545636234
0.01040350280487705
-0.09882075877709096
0.01661282747734685
-0.0014258295700685913
0.03225033254083603
-0.047726398173919354
-0.06383176895500954
0.008066972996859675
-0.059306430323338113
0.053736293434135135
0.03482653621560048
0.024343007364544724
-0.1249273110977047
0.05649787777809702
0.03707400381453023
0.07569718771950533
0.03482640994362032
0.02693370391591726
0.0628488298343489
-0.0246591924375764
0.02160669103323604
-0.08952037087413287
0.05263772794659878
-0.021626209142517464
-0.08230369632261758
0.018663158902020957
-0.005256127664885973
0.0008739337860072807
-0.11618139522032155
-0.03449360715966044
0.0004091892829730076
0.01936172975288389
0.018413528854265917
0.0659885883432282
0.11773956367225001
0.0003859256816466335
-0.05566180632297785
-0.08719740962856709
0.056660318449701375
-0.08158831828522037
0.05880406770524951
-0.058942564083846474
0.15905832307390314
0.5553329545473352
0.9773074036630591
0.6118265510430175
0.10890750142164232
-0.07091447615015685
0.007319931227668357
-0.013969601637472673
0.04004912749605109
0.006617027786142454
-0.020736061581199543
-0.028340109419043576
0.024297116022850278
-0.019801338682281344
0.036014377765272686
-0.05006989069823983
0.05938964031973592
-0.009524295441046776
0.06751084668276809
-0.02736480627398237
0.028512170576657142
-0.012162346294469424
-0.05119519316184754
-0.01070731527773593
-0.0399754232845492
0.02782121340106077
0.10240681574843512
-0.010823341374019475
-0.004766263121654234
-0.00964826566256112
0.01420394001368025
-0.0758898383125712
-0.047325617142466164
0.05413214642785655
-0.0028356495346181254
0.10607667119597713
0.046887881246942334
-0.0116031511807352
0.06916368075551065
0.004825343755749607
0.01897783177304334
-0.1010076822810958
-0.006664159878292653
0.043968059770368946
-0.011556420128220236
0.01152896684795261
0.01829725871362051
-0.06207721844478212
0.042605496576739836
-0.06257696703894493
0.053505360814029894
-0.07150043673588216
0.08809786114205122
0.05638638859155352
-0.029224219797374097
0.00012025823524012573
-0.011632269252466364
0.06020681424164068
-0.03237150222815756
-0.011583251296646398
0.03153666440413316
0.06754735492698052
0.1256228430117895
-0.07039924761681214
0.0049304724813992685
0.01158445871878418
-0.06751981511785869
0.04146671631438182
0.012440035679634674
-0.06417109602594827
0.016443045385177112
-0.011822179756638549
-0.05221545264410343
-0.0017138927107854527
-0.04017247308333664
-0.08916975138614547
-0.02063178545315235
-0.08655749935634605
-0.03029279940662871
-0.059699011464005095
-0.015438540729477252
0.0018425594705612934
-0.01223072479876628
0.04389439025653585
0.051454236343839756
0.019475518180456994
-0.06943589234012243
0.025834710560274667
0.0010614155243057288
0.024930859053979963
0.0015943931255185386
-0.005413578709483126
0.01022165537485622
-0.11671384625633403
-0.014025447855578377
-0.000810129634150724
0.10797395519654765
0.00032555091755545634
-0.05089595069210711
-0.0288247260389714
0.09498773865039167
-0.04518090174962597
-0.004496788245661144
0.08049536566432047
-0.06114515271474402
0.019146760519978847
-0.09335882202158961
0.01755589878716798
-0.008385524063464529
0.027456064073417375
-0.06847848513067904
-0.021902198145306494
0.0033066418705644095
0.01711060423970021
-0.026068764473037128
-0.05087587606762093
-0.012082138130796267
0.013108307543336356
-0.011873698341767965
0.08051985748779777
-0.058221299273557195
-0.02652976554397268
-0.04402174643593659
-0.04290213281230218
-0.03859516619776632
-0.05090423937133845
0.010217852109981468
-0.008909399677539556
-0.0029718089827120717
-0.11815128523707197
-0.1333601983109034
0.06440851698055833
0.04950592875024666
-0.08515894795493321
0.035337888294466345
-0.009743972025113082
0.07871640531317062
-0.0009488849460617603
-0.019295214077593995
0.012357863693953454
-0.008804539518479922
0.056702668895844716
-0.1552593052645539
0.02808116040754355
-0.04063758491099228
-0.0546449052593246
-0.034990402598991784
0.05489909330920378
0.06474288415600482
0.039332786103495124
-0.08415299096125436
0.03236439658794751
0.002094443996396287
0.04717733998411056
0.09238141331608363
0.035234823644626094
-0.02961573099062106
-0.03827058891052357
0.03336521454700666
-0.0011629753948322204
-0.08331100031251804
0.0478205427011956
0.0583024857959075
0.015789745903442544
-0.03572743088133597
0.013585764446839302
-0.01706286420678429
-0.037508028334085036
0.16508555884915832
-0.030499056673314574
-0.015286770566758551
0.06905200478779526
0.015667025122607703
0.023211991542226005
0.0289597517511225
0.007456908326246518
-0.021092920395102216
-0.020089782059835526
-0.038732573469898085
-0.020895954010862423
0.003373661355361662
0.10779084624250022
-0.012097942273077113
-0.024095507282380302
-0.06311747807530536
-0.009756742568798125
-0.031872063979715703
0.015028059620953427
0.0030752542221406873
-0.03145293137057677
0.051543667436566465
0.035266590311120456
-0.014833654163549318
0.04839657118781571
-0.008093726246470279
0.010779034179810775
-3.013413392288159e-05
0.0817350459009892
0.005871732712588945
-0.0007993617801423849
0.10755676886879839
0.02947494037750035
0.038388016297824706
0.02127333072577735
0.04469644922745054
0.04982664846927399
0.11508366561748032
-0.007488999790718054
0.14391470818813365
0.6110666328244301
0.9353684882308239
0.44138316372257036
0.10680003039505893
-0.0019752432182879288
0.031952654614892086
0.0520736517045877
0.011169182132145919
-0.0012300141588109281
0.04749933391482997
-0.04881921701460032
0.061365244040704696
-0.07977100097604006
-0.020320083807545918
-0.04304531897092591
0.1177619320198672
0.08788576762963718
-0.06830239175221652
-0.008449792535590488
-0.03726093228389584
-0.0027036711490412836
-0.01236327922774934
0.035282714502490424
0.021054796252556626
0.060286652653065535
0.035739711070173555
-0.023906184167073272
-0.070233969319912
0.05208237724490126
-0.14615386272032457
0.010463995053380033
0.05391549797828682
0.004561684660613134
-0.04978896419499239
-0.07057285124592237
-0.06514619924101418
-0.04635816573170379
0.032830397730701365
0.04506781904589036
-0.05772338162965002
-0.018799173443575883
-0.00709345669929996
-0.10003867185548057
-0.04814373949996509
-0.04734185129659678
-0.028324669493737322
-0.0067875152118872005
-0.07267359685164478
0.012338919632255375
0.0683676856462012
0.044690213800665936
0.018848432333770627
-0.05881123447503929
-0.02222903048261994
-0.015981614742941207
-0.0642924809494742
0.0653515976757189
0.021819513992691022
-0.06462878256425936
0.0438751900503162
0.07440645883194123
0.04384221712697058
0.002330154448834097
0.05051338574299359
0.022725398376131984
-0.0011381918037642216
0.028262101867586983
-0.05334097019273121
-0.028489120625429933
0.056909557814924995
0.0028638306520232326
0.027380560891327805
-0.01432814172325391
0.1402915757700786
-0.12665638878415775
0.04427408246062044
0.0002497616688223601
-0.019442167061186472
-0.08635140843258408
-0.017078377199254778
-0.027707282811668035
-0.04228731652500498
-0.06613926507604145
-0.05374566888423579
-0.027993121184441062
-0.0136551545291049
0.07726123382016574
-0.06594677308878032
-0.004792353253859522
-0.008346100734498698
-0.02279185676955374
0.0033674024988031414
0.04455208577626704
0.01691217598237864
-0.018494776229365816
0.05196681671232811
0.03142297373361744
0.037304637238376896
-0.03602100311910324
0.04343629716353787
0.02540042178901307
-0.03448764241515056
0.053008762364949724
-0.010707898832738054
-0.019368795572510495
-0.04287375368522964
-0.0347012815635016
-0.07448350047610468
-0.00031595618021130296
-0.04637562884720599
-0.034211793050622254
-0.03901117502962213
-0.04610099950422061
-0.0507879213628379
-0.1225710500747827
0.0011117740382343456
0.10871238435978942
0.027933844814926292
0.018432413052933572
-0.05673440143461194
-0.006285832288325257
-0.055399140315109764
-0.0358823899592799
-0.06314589331811542
-0.036868311566298786
0.05108161620288413
-0.026806084138591327
0.0256894347791915
-0.0816145950041686
0.01062560431472056
0.06529178054799371
-0.025604073974750036
-0.019424843416683348
0.015285201094474343
-0.022182216327042693
-0.0643939691015372
0.009213689638417906
-0.01167746313255714
-0.03788722633347529
0.011516124342902468
0.00021917963148031575
0.022600187658014696
0.0015370783303500163
0.004821708128942602
-0.032028674193767974
-0.04076731383242806
0.07223403936811222
-0.011616167895495941
0.04811437251664139
-0.12302089793482725
-0.012015973888589826
0.07275382319828781
-0.04182245763161152
-0.0022806678383699964
0.021002886641452508
-0.013382805632842418
-0.001467287519869861
-0.011697353841226126
-0.08200620199574582
0.018518750098645544
-0.08618581709286573
0.03271560569656177
0.026972067852560178
-0.07189485028516394
0.10163258215012638
-0.018898542376119626
0.10516728718375763
-0.11390452798603184
0.02669008119855494
-0.050104667471266684
0.05432640888134364
0.0497240599130889
0.08162155585555168
-0.025639982494390864
0.033953196129306376
-0.011345396010114533
-0.015754614233249264
-0.05986783329568138
-0.06221185324965037
0.04373043923724841
0.01848846960755451
0.03266062848677736
-0.019433162818598658
-0.020319030700985584
-0.008735263137274575
0.061435741011066074
-0.015847323363964213
0.07136367557318533
-0.020146465416401513
-0.009039382263506477
0.005554629626737707
0.07191870339504922
0.040919024320008004
-0.01491367311015242
0.02522898350662713
-0.031033996655252385
0.0307308997546703
0.04317244660156138
-0.02829468900118495
0.05506466979999896
0.03085126188870295
-0.03781810839606847
0.09094096101353769
0.0931381983929095
0.5237020016961624
0.9356874854931444
0.4280080292104498
0.15574972215157884
-0.04123515186158968
0.022892585395565712
-0.02633522345237689
0.046541781344679456
0.004078451368175403
0.036184495692051004
-0.022549044425926812
-0.027407493765703308
-0.01432920129074624
0.013403985342116405
0.02236094915610323
-0.07899856624263847
-0.022184411807420742
-0.035112853569330665
0.05754937483117685
-0.059546995535536495
-0.06271800686791879
0.14961198992930577
0.011785308317802105
-0.0348261703198335
0.03246155556847153
0.023706919198445475
-0.08158080572073306
-0.01783438272130422
-0.06413685921365982
0.10534382696490958
-0.08646773295654518
0.13402076088175408
-0.048801699790858966
-0.028719469473132198
0.0035880077349147383
-0.029846011381336152
-0.019440870522637037
0.027254801719595507
-0.02640048568784255
-0.04143946882983817
0.10871550303444653
-0.018067704477379903
-0.0154846339667793
0.048674784680465114
0.04059372918881646
0.0015761944311868965
-0.03869851446216137
-0.036820126036755906
0.0007186593792474662
-0.04353727712717811
0.015733664013389406
-0.012098752424886035
-0.06736998343248843
0.0105961252181637
0.00527249003886584
-0.004096103343987814
0.01626020535285884
-0.08334025453575634
-0.016405174079447662
-0.07441294129490826
-0.04101582014527189
0.012552579738651601
0.026671790082537974
0.09552587674047612
-0.005834353065360645
-0.05321834133604372
-0.03964963982135972
-0.009756412317968904
-0.007440315218943861
-0.023763617253744138
-0.05109423764867053
0.012428251726254625
-0.08792536439661637
0.09465273309881571
0.1268302639027441
0.005269297913782236
-0.015298727828585382
0.07255005940479
0.06346942957500618
-0.040146464026476036
-0.02732793337617862
0.06766616203518025
-0.02403840066574431
-0.05254096129498005
-0.07007453413007407
-0.006288426915473139
0.034965855760112345
-0.0730085138300148
0.02053530534448209
-0.00573310208467797
-0.028986305652840844
0.021197269037710863
-0.10263801878836319
0.049553184135353555
-0.04930643943771777
-0.0904739441530214
-0.062026324255816494
0.008742386058434274
-0.08781158367002598
0.032386232083369805
0.006430479497431339
-0.012213231246716789
-0.023847771455845962
0.059194748612833525
0.011760429819004593
0.013740226438968956
0.020168763695451737
-0.029615887194453707
0.01425435590772458
-0.03831553776153345
-0.03220260098621774
-0.009414506926485601
0.016080749144818007
-0.03469783141246469
0.08540582203186424
0.0012406881742768581
0.005962289390726615
0.061513365287247636
-0.0003619484065342836
0.03866459522181129
-0.0024093469937951006
-0.09594299807606385
-0.06522053999538548
0.036704864037422784
0.04193843925202636
-0.026796604655656555
0.038176722061849966
0.01615212387235125
-0.04642811039458192
0.04424183589488831
0.014924106629321799
-0.004330136848426296
-0.10636941871684805
-0.10077368143084504
-0.0633553455478869
0.03704334771076605
-0.037059811268863894
-0.07890366955691795
-0.04880874162209963
-0.033339075198017744
-0.000758366904172664
0.04358052136134799
0.06262307590689857
-0.03517979213279773
0.020401084065869594
0.10374262834118815
-0.010107314281761605
0.04965173801163958
-0.023211315893087323
-0.03436791844468653
0.010282597870901687
0.0735926119443761
-0.07484925321090302
-0.08151259555385232
-0.027548099922749838
0.028310189021649987
0.0416432194919025
-0.09370239728354479
0.08479795118854251
-0.050216913047358536
-0.06478384324416489
0.020831843725443656
0.0272083146676117
0.10242453033544069
-0.07483182665518427
-0.08590767987631201
0.015909125868492743
0.06151107842932344
-0.0781254211049744
0.05623817758893094
-0.021311478782497506
-0.15881496739601086
0.05288016960568227
0.04015848785790174
0.03574782936477523
0.013736816611007136
0.00742999325241666
-0.08834905863899993
0.005819512097621757
0.06633978708989961
-0.016806373610683534
-0.10660082398289815
0.017377205061933947
-0.04709395148423421
0.04959585610306722
-0.06995233486098475
0.01830577238737133
0.07356597585882255
-0.0532606102375787
0.10251390994475702
0.04066941085316917
0.096763193859738
0.03181099680384326
-0.0007737360580833232
-0.01729563152149505
-0.023891916041243355
0.00018856511658917882
-0.0523974457887922
0.03491520068703229
-0.08225315908029884
-0.014569571594426223
0.011082213873690303
0.0281619869127416
0.006541093375307463
-0.0051678378461702005
0.07792427407429328
0.18755836991544236
0.5539097926384016
0.9660191134261369
0.5252555135947214
0.12883501172962306
0.00027835435874599203
-0.037056121963723286
0.003855493020520501
-0.03648504574203864
-0.05417786344072505
-0.03107062451748547
0.04052071811671201
0.015309240958611565
-0.05682397532052622
0.025478666224747506
-0.03672547945700774
0.0997567187080589
-0.032614649997883056
-0.04047640699361851
-0.02121590958103825
-0.09600762029073917
0.008844626809792056
0.0454768722494939
0.00945468086236032
-0.022166123921290262
-0.039678619105128016
-0.0251840547579889
-0.11868370359619487
0.047956400960469485
0.09930321855824564
-0.04941679956228899
-0.03785566503772381
-0.035639606886904804
0.003885789333707466
-0.08887101139136054
-0.0346943124825513
-0.08001192431200846
0.061445245666770336
-0.03599717887774399
0.04449718632493035
0.043374201335069806
-0.15719841693727257
-0.0027141964845724376
-0.046017305488110796
-0.04725605663365132
0.04272640399038004
-0.04768640560479263
-0.08602955886023034
0.036530140114788535
0.019677625767313738
-0.020379484057892517
-0.09123404807412541
0.07497090122295573
0.003527030513035154
0.015311354253965568
-0.03340362758332523
0.03810086131883261
-0.0665712551472607
0.001242811794599794
-0.03525985633753164
-0.013360756079632101
-0.10753294490061863
0.010375862760089064
0.0009033600735434234
-0.009778714119987047
-0.013866339157180496
0.012157970562689975
0.028420989683903154
0.014362296434602224
-0.021977125066270854
0.0256736653822736
0.05468991971335688
0.001584692927001983
-0.01972097405624707
-0.06207506655153782
0.04128757773323924
0.021728215918857964
0.0643678177395863
0.06917748152011326
0.096378737959291
-0.006765485751125649
0.08236158265528545
-0.06492771126378942
0.02744768495590097
0.04299042786644842
0.00420480535986496
-0.03238427792830601
-0.01402510582209744
0.04413034998092916
-0.008784179088799084
-0.0075096100304611405
0.0022012240358569813
-0.02898420843654024
0.004095794294519668
-0.01587277438474156
-0.01710333244203138
0.010803401399120477
-0.07264147038066092
0.0414144994077289
-0.02247419913463684
-0.014636279726092627
0.036146528876036484
0.001938637045693115
-0.06442026111789462
-0.0261248430808661
0.06109731837034985
-0.11634473203547663
-0.06965380408626996
0.061989084054956095
0.005336013306617562
0.0068241957453919954
0.002260551486838243
0.05798245005798101
-0.00997336264158445
-0.043945142092362076
0.042298093319503786
0.018143700691746322
-0.015508405721705332
0.014076729879162917
-0.006495243380166767
0.04676111517609845
-0.02372557000346163
0.04735268776422191
0.088608638546585
0.031630591077417274
-0.15553315462194928
-0.05271511227097978
0.03173710140132107
0.06186029182878187
-0.00453274685802971
0.012013371841369531
-0.03109482022232934
0.10674067967673649
0.021872115549679376
-0.020426533739610234
0.0027212239364151174
-0.04660327834133796
0.0712207941566435
-0.05053337803617736
-0.06189154781482601
0.04660398729221939
-0.018098823127279753
0.024688873741619335
-0.03897202474606371
0.0483761107275433
0.014296365891490774
0.029564123201019362
0.005344481449504755
-0.04255284014247754
-0.06641940062440192
0.01947419081083807
0.0781089761443631
0.01899207725015911
-0.008551142567296615
0.04856388649673704
-0.05560208003059415
-0.012312409874840969
0.0396885783025831
-0.003039315535295261
0.047636990635353774
-0.005923111519307859
-0.01724693358985707
-0.04943178552564759
-0.016498094077460345
0.006184926767222685
0.015226667668815561
0.016061129449520067
0.03736810678162451
-0.022621801647666893
0.06630532443320968
-0.10977297339470163
-0.04016451831468279
-0.001771209295844194
0.04924118800550254
0.029450218832502546
-0.0012220004340402532
0.0005946191382667066
0.10041395302727954
0.01302053148658195
0.016252777097329172
-0.044267180658721164
-0.06308600133423362
-0.0014644393998689072
-0.12446139767274007
-0.02019293515094116
-0.054669508641817716
-0.08142960656217642
0.0004795418326138388
0.02244452350500145
0.06714118128697096
-0.09430893559104332
-0.002112675676100729
-0.01179084944748359
0.0675050083263861
-0.021974926611639342
0.07872691609466584
0.022753586308874113
-0.015034613592304891
0.01930732934449607
0.024002721471676515
-0.0027473141017288535
0.03758328471733784
0.02640063814343482
-0.021015318762026322
-0.008136114641113081
0.13753010985853353
0.4522308279552339
0.9862138390285055
0.43377163165479604
0.006227710370842368
0.0049476877127331495
0.010763962377170458
-0.01536395704014569
0.05246363103485527
0.026154729862862665
0.04139682271988991
0.028398863687929318
0.051370996290704234
-0.01356762410254854
0.11083926122384308
-0.08367553829332888
0.027116083751170413
-0.04210033350143809
-0.007832574364538023
-0.05970536621276832
0.01624136230499606
0.10488548696733918
-0.0034594740366417024
-0.05106695895268019
-0.03473614050929338
-0.06930221344692424
0.0055202857021868605
-0.061933077932412754
-0.0386675701874847
-0.011564780008641093
-0.013052898464039196
-0.02404476839717302
-0.06832994620941626
-0.0681926229622082
0.007084410007953939
0.05060799493093515
-0.006208658189936788
0.020831118461748514
-0.07368944672829071
-0.06075205645010548
-0.05975038142385517
-0.08248358363047109
0.09251481960226149
-0.0630024707117847
-0.05927910815755453
0.0025408713961009026
-0.005655373390645849
-0.11523584649031005
-0.0036392093455913026
-0.02180279343410523
0.03322408439974516
0.004659064845412489
-0.01880337027081881
-0.06772731474193568
-0.006769810263733749
0.01694196506563559
0.016704000274009687
-0.04046340077400947
-0.015407287255804947
-0.02026795390606472
0.0398200244478986
0.04610521240521991
0.03907452988575338
-0.0020619063798359384
0.01463165297393921
-0.05023346628178002
0.04732499140995372
-0.007519073413391532
0.04177008161447299
-0.03522753603899836
0.009079898735372021
0.006660893659063159
0.021669605261363058
-0.03600258582754819
0.029140480385217188
-0.005857480703034618
0.017778533876560903
-0.03448905871988635
-0.07095345270171144
-0.00018949454159912602
0.006242247165797877
0.010586611367096311
-0.030783024689868946
0.03679947213997133
0.02788541465777314
-0.0460791160298073
0.06043542035847898
0.09725027950194905
-0.07102538844473447
-0.017593622568981632
-0.007551801748118217
-0.018562491280650007
-0.046551360958959856
0.027252718101705972
0.0404108276107672
-0.11500451534913865
-0.06865588950655127
-0.07841904492457266
0.06563001985826006
-0.019047699671126628
-0.07413597450975244
0.07830130168110944
-0.04055706730401647
-0.01739898163301546
-0.0957742811033418
-0.06722342469569062
0.05186571845510819
0.005862360949345329
-0.08961984518404281
0.055725952528336925
-0.16039200411220372
0.0013328362778512034
0.06403872586772034
-0.059271470978228206
-0.002424466754453432
-0.0002038211313779767
0.0961792774316255
0.07860515534592916
0.01658699887088769
-0.018973525229537186
-0.07703569732300236
-0.008656351783528408
0.0389225256060452
-0.003533543818116665
0.0784938630221804
0.06424112424916842
0.06428797730711734
0.06713224680296229
0.01369611708331168
-0.05388867576153862
0.0005826134524748525
0.0022934096890749344
-0.04928851673004172
0.06365878858284209
-0.06504358559601883
-0.02708202310996808
0.06057274042210331
0.018839438501563516
0.025632192870138782
-0.00653085717827517
-0.025074132398652867
-0.041571217653929265
-0.06716670700798931
-0.0378534672285428
0.04680019110648897
-0.06314099823733607
-0.008443388170992718
-0.1113288994522065
0.04563967829818096
0.08703836878708063
0.018454722184033753
0.003960223274358656
0.07205472703007693
-0.01477637936126322
-0.036720268756548706
-0.006416376272945896
-0.010585938426123532
-0.010346690251310936
0.031907633795936134
-0.06936142126597852
-0.0042819429064090905
-0.0018074033757195175
0.027730176572272287
0.010569677394587999
0.05507327812338472
0.061976657571328725
-0.04412176738413873
-0.013252787107093364
-0.10165879069133332
-0.010832464121208281
0.07517465921489469
-0.08492744648323815
0.052049429528462476
-0.0595079785107783
0.03387007275563708
-0.0014869924569156938
-0.05079141677948308
-0.04512553405022571
-0.03746149508603852
0.10709016543610705
-0.11252873224663983
0.026894100790276588
-0.07770836405385262
-0.04270115380711381
-0.06460653564299673
-0.013425864132287819
-0.07555030172694749
-0.008667406122701954
-0.020354501409542612
0.030322151718794807
0.02199755701616683
0.04716274987483202
0.050427168466474395
-0.06797330486046556
-0.016880268867113087
0.0632331923045226
0.08161505469011247
0.08642660796525374
0.05175238655144873
-0.002750310466424959
0.09607107771627325
0.007463244227287998
-0.04427441550562905
-0.0005716318094287558
-0.05940734415743981
0.04174957956631954
-0.026590989994487557
0.0014610619844644844
-0.004685964230244894
-0.028536830489072986
0.022121650194103646
-0.0926577583458439
0.13953693118530167
0.002235456580476669
-0.065928105351624
-0.05476709252264125
0.10715613636740524
0.5010394379445245
0.9739978952519008
0.465426684869207
0.06959938908982664
0.05547831947545793
-0.005831481610959292
-0.04586255171712023
0.03337493222267889
0.04481183870061273
-0.07402528220817171
0.04709976061436422
-0.015498243762057549
-0.07012136069445853
-0.07432120251880142
-0.07019844303986138
0.053284945583543436
-0.07734121840314753
0.062226125612737326
0.05388942218613416
-0.040288851703973186
-0.07947809993591053
0.05157862238135019
0.0021618354923189074
0.00940655858149804
-0.03501602954607101
0.0008837563434502768
0.023550158231412665
-0.04463067313941213
-0.021959111033564252
-0.042078678116140064
0.06780486357130326
0.0930228481896885
-0.002169000649478505
-0.014082641776793352
0.029567374384259534
0.033991065256670276
-0.06675460802373495
0.010983300647294547
-0.012949633756259982
0.06992445549957309
0.038558229511402364
0.04017520013413109
-0.07136033348885747
-0.045138459981702655
-0.06004189832427151
0.02865152696173623
0.05394787044241095
0.03016021540598688
-0.026302470405852388
0.02961106289970188
0.06594771247984424
-0.07051369448415296
0.009452776305795338
-0.04321347858418009
0.043330393306093486
0.0018252172042517044
0.02136619766353618
-0.0006304163405399764
-0.05730920196230515
-0.05463666264121643
-0.05669403518966803
-0.015677560657588747
-0.00388094129652532
0.05283766022305819
-0.047458427003504194
0.053154641138678155
0.037434939886664485
-0.052041338336080795
-0.13716452409976107
0.09686831741855784
-0.027499821750555972
0.04167470870651361
0.11452658343246531
0.013671008280106834
0.020106328848940695
-0.014352034088727941
0.01114889172143888
-0.0734192008292317
-0.003962358402102413
-0.018116213171770024
-0.04552380249182459
-0.011606269314585062
-0.013164216801308604
0.015978979082746963
-0.06375442515794268
-0.0703364326306673
-0.07311922550103014
0.05515893882862369
-0.06309149287972697
0.0025659623426708337
0.030798093389366704
-0.004151835121997487
0.0382607250707077
-0.05994092676254619
0.00021036593416454914
-0.09096269935000811
0.020140977913844796
0.014980316212044343
-0.005576004317614767
-0.039141936056681814
-0.049908706823523795
0.030062159120038703
0.01223065109872985
0.06832644097970525
0.052278666348548636
0.018151246135872958
-0.04102861998764545
0.006073619440780596
0.08249156066116009
-0.04387722830374663
-0.046242774099099465
0.05488652551834536
-0.007461203417841388
0.07120572143766608
-0.016214193266109542
0.01261937841867547
0.006648656510719961
0.06487565650438143
-0.007574331414967614
0.008562997957621192
0.024467535103567136
-0.014481980994515649
0.003948314377864095
0.002924521247561919
-0.02305734482379801
0.02695526726058553
0.02749466391143206
-0.058094481324990434
0.007961490270832688
0.06335028083629639
0.05223188709826735
-0.03628109230908042
0.009373801891139719
-0.01939482385989491
0.009954156586743729
0.0981693658707169
0.015743830228387854
0.03298579497016272
0.050844013034727645
0.04633160710577996
-0.0803082047237335
-0.1017346614647533
0.06651380973730178
0.010476476380616731
0.03292425704740714
0.07407125230840671
-0.0689855364833154
0.04747718580944251
-0.014088535516478765
-0.1306205354565156
-0.006298707187337888
0.060754690189405304
-0.014360533596317285
-0.03452055034052633
-0.06601775443558876
0.07012141215235251
0.02134680720035492
0.0367679815981685
-0.04033872715907217
-0.06544941710960102
0.028518446772560702
0.021049495809015863
0.03630886428841023
0.1377883678146513
-0.1290593682996785
-0.02571711953634311
-0.013405056398483807
0.0006755911934135398
-0.021713138360281766
-0.02842183409677263
-0.051155871470130204
-0.022259460637636577
-0.02081429526251661
-0.03643478861852707
-0.006608635525527292
-0.01728780355317529
-0.05167165662182102
0.013096362795840588
0.10343386303372859
0.06889993142420561
0.0467179959635524
-0.003330497830494019
0.05130275609782458
0.03274270934486335
0.008125853470548113
-0.017789077693329252
0.029119791021585014
-0.04823455872791058
-0.05770499169683594
-0.01646548396534853
-0.009218812838729346
-0.01981070148389435
-0.008837830489263138
0.06121679281983248
0.033777654258251924
-0.05767938658414732
0.050534376350437483
0.12443127762360039
-0.0726062413243116
-0.029247972237440613
0.013435873105130112
-0.010886870058294754
-0.025939151049774498
-0.04863192689855078
0.004691514016334081
0.5612372951547301
1.0338598085225223
0.5313581006969086
0.07640434458125375
-0.08833171984188481
-0.02949838450703557
-0.029315102903625375
-0.09192318265673516
0.0386822567299224
0.02712945517759431
0.07104033140062653
0.12854067764438679
-0.0636958382003764
-0.017842961869140504
0.00043907919844552346
0.02367513554845687
-0.010626680909717053
0.060978507326862566
0.057127300958055086
-0.019310095939129187
-0.010042903158723046
-0.04327013971171269
-0.05987496825954733
-0.07899377587602814
-0.015917815292652716
-0.05934535626479014
0.04444087164925311
0.03198826184817052
0.06728212987976001
0.0071573596920445105
-0.08653348699691948
0.022886366397656992
-0.03652521647756534
0.03166441589090293
0.01983290079351865
0.01857229455611947
-0.02375894746838027
-0.029571367076718598
0.028849566806530336
0.0014574686042663333
-0.08117280640422635
-0.0827776040056251
-0.015911028946341697
0.06423978786770283
0.054812597775707586
0.02893336015373914
0.043412098090001766
-0.037543799034715455
0.022063637928417163
0.01996810669988265
0.006346310058991541
0.16449780671599662
0.010519360999619379
-0.005218154264501566
0.16498920295497774
0.006294092269937582
0.047335753945980094
0.049578925149236425
-0.021977841067957644
0.019388724238815654
-0.01136247884649493
0.007896737402850827
0.04112495528889671
-0.05936647169970445
-0.01946830381629816
0.04307886079890771
-0.02632748748096904
-0.04294160213574952
-0.0652796850222643
-0.0010822189665312086
-0.027498543939755888
0.06555092761757281
0.02320430970634085
-0.04414872736833969
-0.019836906370669285
0.09236621358642821
-0.017662946479096248
0.06408238194965499
0.012672092191924396
-0.002722589891792448
-0.04734838294171422
0.07872679536705986
-0.04344527433167659
-0.015021086549309698
-0.04856002644356186
0.029762616484723114
0.05214928796884075
0.053415268843750696
0.024390553253484933
0.007682701340088545
0.010805926341130213
0.01632260484748247
0.10175733221793276
0.06534499997340838
0.011727400198481166
0.002400286413304994
-0.0362980564155405
-0.00839277648847228
0.020162690384871146
0.07083327721712461
-0.1016026860407696
-0.01409270858146592
0.055327052113045005
0.11764059155137932
0.005888036659547926
0.013157734043951161
0.02303060769516146
-0.0011542101369455807
0.015700850193100833
0.005239316913962063
0.05868020809864404
0.04368072124294637
0.017082148718718923
0.010310784565122112
0.05862883157963944
0.02321539963619646
0.04363514649944465
0.0980211002053019
0.0667345631677508
0.0410487431857968
-0.044349846076204895
-0.06771961441651897
0.009423677529473443
-0.00903212683845665
0.08189311974804574
0.05201780417665994
-0.004100257335865367
-0.05246766810209829
0.02749312367450601
0.006335508133911157
-0.011742755011159298
0.010502947966535477
0.040669471787276375
0.029868076381331488
0.015500068225896774
0.07012768366151677
-0.031223175057535843
0.07895693296931108
-0.021582976999116633
-0.0647048685644722
-0.03989109586444615
-0.12003968804969689
-0.007545040748980997
0.025099145935439805
0.0063857322526513416
0.03868323869086398
0.038507326666434194
-0.052017630312602293
-0.04249303154663931
-0.030039126306123088
-0.017453929706333197
0.025399007858567732
-0.004938139707926722
-0.011944739855615432
0.047881551777776435
-0.12968541859735713
0.023932694473911595
0.05561883730774784
0.015098644371818851
-0.01825440256998325
-0.00023405453740138563
-0.04482135175966259
-0.014798167217795375
-0.022164469665563947
-0.007619980003555628
0.051895240756196226
0.0003393096980656583
0.015892059944235135
-0.013153088035609342
-0.03168185432963321
0.02893009484789513
0.06718108369505986
0.014724516737136113
0.020508380548821356
-0.08549827157084619
0.02885536674647099
-0.07557501498452966
-0.01371408301206551
-0.06169589308674071
-0.008456274698391913
0.10391830653892967
-0.04208844576923967
-0.002229851774268282
0.0076192862696049315
-0.08540954574342746
-0.0611149984207933
0.07457725729403406
0.04248257522065295
0.0075519659167471165
0.004977750354502302
0.014904626966377458
0.013432708627254564
0.06811711486404813
0.035380351340367155
-0.03808323011661821
-0.017970863319082073
0.05585275152664916
-0.04623088622043904
-0.10876865021821058
-0.0873793781749548
-0.061257587006913285
-0.07152972477056661
0.05277045028993749
0.46655704124635267
0.9524758821244691
0.5616068661367108
0.13502098647323563
-0.02313674114722306
-0.0064125398337494845
0.044103750050149305
-0.09319553285843185
-0.00015264467534803207
-0.04427736107488664
-0.16497792494943458
0.024488537114293232
0.0002777174559003897
0.05556450727687015
-0.0018676442829700286
-0.07537389070746744
-0.012720152976834449
0.014568512690006308
-0.053486863454175984
-0.035256622348876325
0.02228374145077812
-0.02616538431503598
0.031748021267995655
-0.0173504294047412
-0.003119395589901817
-0.08835526794691721
0.04339028253791229
0.07132280397645803
-0.07152180234752659
-0.06722710801997392
-0.03557422976112479
-0.01578185179495092
0.02010485849592899
-0.056338585920766585
0.03950895368001606
-0.1151135117568931
0.04468479273325767
0.06461290476469053
-0.0040795399886959125
0.026274855136286437
0.04323443596232896
-0.039877809119392926
-0.010833074093871171
0.07533595073967614
0.07206130225524365
0.02352517972189167
-0.07569129355281332
0.02668813955378523
-0.02511273758730992
0.009629917001952806
0.0422890293901986
-0.0035717706135179623
0.03970766386637947
0.015009679020392686
0.015342691126824596
-0.0558422016655467
0.04923060982822429
-0.015357923275984045
0.03511608632466005
-0.032799789925318144
-0.05012046734808763
0.007175770071638738
0.08394071275002482
0.03245191251986222
-0.039575886357641255
-0.05238232118006432
0.009567616245980896
0.04374885841430555
0.026197176060585532
-0.030896164978295216
0.029312381506998587
-0.02818618313340567
-0.033513572622014126
0.05328499004141982
0.023364148509309825
-0.03883844647538072
-0.025154403562365688
-0.054900705967196345
-0.010441060132748429
-0.05114510442771208
-0.026884685709063577
0.005611053066743303
0.03875925860514503
0.009097967602974892
-0.0031775752674462867
0.034744777739820286
-0.049270900721888604
0.04525508401845945
0.08253855173518224
-0.09190477538514534
0.03054244615525884
-0.0018447188419457366
0.025534274931596747
0.05238956354363805
0.03196995517613047
0.004887480640938601
0.04978640025400244
0.00540012980402813
0.003771922417537766
-0.038761521345085426
0.01027628764673753
-0.0179077108332917
-0.03632391665435127
0.01994711956017788
0.038641910226383656
0.040620806796590136
-0.025225358762624675
-0.06267927788085266
-0.1097572845103631
-0.06833157928202307
-0.1273160411865617
0.02500280380338096
-0.0348346713654314
-0.009563113668981577
0.0063401593925498205
0.07312879018999789
0.053517003480996375
0.00754460776546682
-0.025153483178043202
0.14066478686868536
-0.050106248861034965
0.005353019564933199
-0.0011570431633415328
-0.04218651932968288
0.0387476169856992
0.12024038799221633
-0.03587640169577352
-0.024556584165901327
0.09479527006735067
0.056074471853061275
-0.023267653845126985
0.05371618437057574
0.0030061936062271504
-0.05685264838182185
-0.0006369405505197889
-0.041174076483936256
-0.08044834436723267
0.039659889322291725
0.01270531957196362
-0.03285118512599198
-0.01768255945251641
0.059056378362069444
0.024044926275125073
-0.023919407810106316
0.1260247199491283
0.03556575994912655
-0.005274704799161345
-0.08536533229595894
0.02731766518475573
-0.022679800777674043
-0.06353883469648192
-0.027830816102475304
0.03964391316687765
0.0938091618073168
0.059688426533867224
0.02976378539360533
-0.027810206224923497
0.015356354891219132
-0.047084728805625226
0.08670477929914783
0.0011517022327846653
0.11949345732687744
-0.010674488783941345
-0.018818073692808523
-0.03420414710393498
0.05405013712054534
-0.05288396821696173
-0.020112770919585327
-0.024701060562089497
-0.02325174393271144
-0.04483619392768129
0.012471420071873535
-0.014654817932661657
-0.014698008745937827
-0.011956277105681146
0.0031138280994423076
-0.050346832306525924
-0.05062323522087006
-0.09684565326953437
0.006524077698073465
-0.0216285773795352
-0.022184940889121332
-0.018033288275562435
-0.014405250037434201
0.10160809828384694
-0.001468406712233915
-0.046119967686755345
0.01631849855395948
0.02532355564361663
0.06375651825565257
-0.03774138535405492
-0.017117653254873435
0.030580494319157343
0.01489499270553123
0.001353897149867825
-0.0043544751229737675
0.061124045707202895
-0.021090873317566185
0.005851480784442639
0.006134059839143744
0.0866392615297885
-0.0006168618901511133
-0.023244017667801185
-0.0323588272053411
-0.002721563786614793
0.04271117156736239
0.05056773257421188
0.05533748447467993
-0.029539041721415818
0.031769894888846
0.0005494937817244232
-0.032874753349570615
-0.032035780013792724
-0.007964375530352145
0.06889945554352596
-0.0933080780514308
0.025318403673292463
0.08468451978386224
0.5080002976321636
0.9748131524382435
0.543401175447745
0.08946510177474429
0.01575251282178283
-0.04725147602171
0.0036426860122381307
0.08236431564151726
0.02023652082538412
-0.039297078733719085
-0.10119777796798618
-0.038318744673779964
-0.02816501265530935
0.059634902634684676
-0.018413426320615427
-0.047336136056153666
-0.04328925322796012
0.029144063220886442
-0.03880809567803558
0.06405885739958987
-0.026263190977936775
-0.011679764552661023
-0.02994311572835566
0.06188224830727144
0.06309116884552556
0.060002004613773224
-0.016898710960336166
-0.008219654803791176
0.0010539921411733448
-0.006613107291392592
0.02494214020121214
0.01685195586581686
0.007742439001093718
-0.013190937547181564
0.0015748336491814955
0.003568646706044916
0.061070857116216196
0.0426756671577668
-0.1057358188279344
0.00830222207101098
-0.07222382691507043
0.036520061236208816
0.013161635211091425
-0.06811837498155766
-0.04512257660231961
0.021394625804471934
0.0019498972556038841
0.04233337677789911
0.0026744184636428863
-0.04119548527876843
-0.007588848167708564
0.0005348961042123291
-0.06825886003337271
0.04458500636553253
-0.04701949638520963
-0.027010994664298245
-0.04918197916926638
-0.08286360894663636
0.05823087828913533
0.050262370536842585
-0.05032649138484196
0.03290883416500835
0.007177418876143764
-0.042925628639871344
0.004102017589100371
0.00860413486372525
0.0021726580622540843
0.09875083748818997
-0.0844277604071194
-0.024050176347391553
0.06271848973261311
-0.09525829226559968
0.021099050576982623
-0.080953638232551
0.030863427943435065
0.02706160796961416
0.08337170323021739
-0.06823829951722893
0.060459005569295066
-0.015047836589818864
-0.01800043974911891
0.07279566448588429
0.06654407717446695
0.03087840401425614
-0.0810156551702612
-0.04612735169845805
0.00595581276558933
-0.052339109473477474
0.02837134705330696
0.07306479133042613
-0.0888710784832463
-0.03682019946498403
0.006846304543521137
0.013824201034847064
0.029561281038581397
0.016689206274853954
0.016264136161448565
0.014500655116349315
0.010227435554993839
-0.05128327120408034
0.04574425389460454
0.010508720185668542
-0.07741133711876068
-0.10098511649738301
-0.002272898572027032
-0.021652531171381897
-0.0663995739825441
-0.019119949201218234
0.032731719184769116
-0.08918227869819244
0.011336660356872127
-0.027141573720301355
-0.05778992922626758
0.00011825824726789964
-0.04055758857867649
0.0815899459362714
0.06061651123329344
0.0652752796696594
-0.044664896696564024
0.037215078925337326
0.008475856865177153
-0.06402501247403798
-0.0010823806866535567
0.06086512055835311
0.001408148143151344
-0.019844046329117855
-0.05327019265640262
-0.016561033445319624
0.02139819094450388
0.010683884267386062
0.016605340560638986
-0.02845385160491143
-0.0002326366545196466
-0.007533285507391108
-0.08468657101733568
-0.030796434654045177
-0.007779978948071491
-0.020003901667453194
0.0745630547330217
0.011549521328929066
0.013171562720337272
-0.01614583612135526
-0.051496783996134804
0.006980250022265525
0.08324400471924372
-0.01763017884898555
-0.0019136954885478872
-0.0741729669381606
-0.03709857352946926
0.06227752727048328
-0.07781434556089667
0.013985203669783095
0.02966692443280789
-0.08043498894103503
-0.02621687422442851
0.049354267142679834
-0.06504172823765578
-0.017863329257339904
-0.05173058998386838
0.07742828257803056
-0.027372326489987744
-0.02565282446351687
-0.07793235271122516
0.008018956284437618
-0.10752758233136664
0.01113079575506092
-0.07147854512683836
-0.005880199774512064
-0.044347091802263955
0.022369627811315303
-0.04528519177429409
0.008126278499016067
0.06039763881190488
0.03747155296812483
0.03672668917572385
0.014135608242034393
0.06931893116742345
0.047181675854834564
0.08567259205022341
-0.01404438136381035
0.04971859779652264
0.09689484850582279
0.0677804338487879
0.006570919796611088
-0.12893430402356618
-0.06203582871632482
-0.029215292910019033
0.011678317037923283
-0.015542121715757579
0.015947526057450433
0.06748204388466876
-0.08920196174308076
-0.04467971500946992
0.025351992738445114
0.021711056755663233
-0.0038887171719074833
0.07056305190471927
-0.05304700754299396
-0.013631415572062353
-0.030876878360475948
-0.00590159664254036
-0.045707366624476845
0.04912167377751178
-0.012861456803621892
-0.061422238527976784
0.05591546328285361
0.02987240913488072
0.11501725695411594
0.3685612915088608
1.0521043486638932
0.5505026369109712
0.05733282002569501
0.03399952186763807
0.05954991754330642
0.08360209826812265
-0.1552010391947466
-0.019175900467365874
0.1212283927854099
-0.06870621519701253
-0.00013099281188238795
-0.0976580619894355
-0.06724489029563739
-0.012272645296387006
-0.0715664598369241
0.07316060619768311
0.01017344759477972
0.02563388653323472
-0.055760799291939916
-0.13274766419845938
-0.06493493420944928
-0.006254550715631503
-0.0049482005539047
-0.09590415105968635
-0.013228735680998353
0.037118999640236676
0.04329050558864354
0.03939636186162652
0.01692459014450629
-0.022559001918012092
-0.07454138657290416
0.04497513727692454
0.004964935318842966
-0.00270816724117461
0.0020889228617019533
0.025654612663026446
0.00898017220010046
-0.0563077122725503
0.12403924349191325
-0.03854668878698707
-0.012443313291567433
0.011917281201533757
0.09233447902913046
0.06426380327243289
-0.03156507181203828
0.00965702007465332
-0.05415223404806718
-0.04287923495247257
-0.015531281238707915
-0.05704504499286799
-0.023467154792114836
-0.006434583255364077
-0.0847107141658417
-0.003478229299868311
-0.07951274714978981
0.01837916408557967
0.05547048090643247
0.004022871751356661
0.017501880537714967
-0.013572129944819059
0.001073854072187429
-0.06959005432621813
-0.0030720240878862833
0.058164228979060456
-0.01533542099459892
0.0065668711952489274
0.06378709732933166
-0.021421580204861186
0.0503100418758096
-0.03857934881987108
0.03876670181672378
-0.06463780349046794
0.07144102689677555
0.04746385823813432
-0.03963832104787396
-0.09486479370745893
-0.05943755576405101
0.06119888561730629
-0.02576649653913457
-0.056418398893517054
-0.08315009848486767
-0.06126138701575656
0.026969634029396818
0.05696393510156716
0.0020061211009501324
-0.06391363987966871
-0.0015600315769586266
-0.006861704705763994
-0.020719008805899754
0.03586127371741065
-0.0058465882460184675
0.0019850437535876408
-0.02763216218404277
0.06878385724810802
0.05892730216739476
-0.03339950619938533
-0.005095926207506516
-0.02390771041196399
0.09410892587021247
-0.08267091506525523
-0.08066281899527972
-0.024828964818067123
-0.009322579362312304
0.03724320356363098
-0.015566415976734064
0.03836547452780797
-0.15298866434182878
0.008529293149096326
0.024027835068962257
-0.05520606017056785
-0.018312944018323448
0.03792510114924654
0.03190296402315809
-0.005268681574857288
0.05816915524401587
-0.03689630192361259
-0.04407124172022567
0.057914284405542374
0.10020793607985795
-0.009750947367723098
-0.052739346488066635
-0.05372550027111259
-0.006246745493352228
0.054344579898292514
0.035084906459334146
-0.0006220561075120291
-0.039680101445692395
0.00666552146492883
0.0255501901146923
-0.01787456698441234
-0.022378576709170546
0.003171142644704929
0.00829097221250792
-0.006540143150715414
-0.016891415183976476
-0.07172528692242618
-0.016024593975181894
-0.00518551314955926
0.06814214993307925
-0.0009945085250923319
-0.016095251412078328
-0.04595072364539918
0.00804792356158651
0.06253403424852909
-0.03693997568853122
-0.0014234071067379618
0.02060132974843744
-0.06791076700842084
-0.11926460000447499
-0.021716168904120908
-0.00559750935090897
-0.012429205086680868
0.03175593786370861
0.07526812362257551
0.06323422252653312
-0.027628472214271102
0.012119685819187853
-0.010988468115206275
-0.050283595929086704
0.007836111095305218
-0.0054297347594104
-0.059405922590706685
-0.0014877714992967295
-0.01090725000933039
-0.0170437483293492
0.01165522291366939
-0.15117603722701084
0.013548132078936695
-0.09634448542682039
-0.05998537619619329
0.06590086826123412
-0.06513215721089329
-0.05669094489705371
-0.02516779572215723
-0.03384802826263953
-0.027990781631618257
0.1327341340609815
-0.005440876886406815
-0.0023023926014138184
0.015903597294603992
-0.07275559879821149
-0.017773542411425366
0.01231204503378542
-0.09066456831616337
0.05520350507741
0.046805093473951745
0.035217562565742815
-0.034037651537204464
-0.017956288774264324
-0.04165551068330154
-0.10650379861035751
-0.05844252774966509
0.03888681425796993
-0.00034671421398580165
0.01452520474784479
0.028641261930448587
0.07986836367281719
0.04193947336032769
-0.01754046202054768
0.03642872749987858
0.4874599276354568
1.05671502474965
0.4721827374352889
0.08008470100265751
0.04541317067323026
0.020612468710150513
-0.15143579111832292
-0.037159703247887255
0.022984279385319856
0.024339356097892388
-0.07906768324318353
0.012847591982826402
-0.0002982261363076788
-0.028637297802415793
0.08164072633077658
-0.049493520952913705
0.037180015915868024
0.02545331511313508
0.06229389405610994
-0.025891013148647814
-0.06776280137701395
0.012267251967409161
0.030472819705233484
0.05339114445054587
0.023859769225951084
0.01219607714959313
0.04488540854286969
-0.03112100179341408
0.06572626313336603
0.06035869251154047
0.008386834033839713
-0.05444940514000847
0.012425214226441416
0.023061656574678856
0.03296035916751299
-0.06974227793790543
-0.06537196725699794
0.0002917793883318778
0.019216102001780058
0.07602011629729245
0.0715132424155645
-0.0829894437883473
-0.07990611555721715
-0.04169883541513424
-8.140463141870466e-05
-0.005237026272239412
-0.065142613765421
-0.06292884806679486
0.010650800655558559
-0.0848657134200555
-0.0009233588179203001
-0.0994658533568652
-0.02754195014539712
0.026683082124897783
0.03395442717569793
-0.08753752768084676
-0.01904195391369639
-0.015427200808464875
0.05895272487970041
0.04985662328081727
-0.010988607830466603
0.059562890863070456
-0.0857813604957702
-0.008613463682162746
0.01829262773612045
0.0020727505110011662
-0.017667199645432192
0.060257656893712465
0.06555255728549131
0.09062216414279872
0.001588099385795892
-0.050975592754974555
-0.03377041006189996
-0.019726368056625445
-0.059226641210124234
0.011028943560069615
-0.023056120818271547
0.07094402829885774
-0.03296731517843168
-0.07290438971805661
0.03898356757392074
0.013849885007797448
-0.010430932146762389
0.04841545688076161
-0.016327941098970056
0.026637460182572088
-0.006402060546749334
0.027593543289349567
0.00756400221640748
0.08845258115997659
-0.08412556702105733
0.036832207792375796
-0.02396760598949851
-0.02492331257656305
-0.07535744554049624
0.05398807246554971
0.10679693946499731
-0.004544855785934024
0.0747452829909632
0.016009774114757236
-0.10177345678996395
0.043320645483608144
0.17208109937287744
0.01808272889079582
-0.03552895949037136
0.1120822054491337
0.08493024130604257
-0.02550462586533886
-0.09510166375541569
0.04301915574203404
-0.05905087207816526
0.04982994853603457
0.06892641537344538
-0.018997588889624085
0.004947706703859543
-0.02366458194224734
0.022477458375199325
0.02591168399017621
0.03735652026057497
0.0464901657590365
0.0942904245326392
0.0738963493547322
0.009358048688359438
0.04621691451444245
-0.01841378559413592
-0.009466133723562612
-0.022305668875340644
-0.0047780040131847265
0.024242111540970276
0.0361071203258053
-0.03336636533761659
-0.02301032486911032
0.007567614622500849
-0.022197212779853124
-0.045819470655925065
-0.03609309719747306
0.06173543872876715
0.05576997885871898
0.02062471244858608
-0.07441454978313856
0.06050740902915981
-0.07988292050551088
-0.027729842984236888
-0.04499189701492773
-0.06969431511073247
0.04817213428355815
-0.007068540410525502
-0.0069260816192973675
-0.015067289308908875
-0.06247175807629401
0.019888955622642687
0.09831009671634294
-0.00782335964910295
-0.03270153939702986
0.04100521853259061
0.021828914007044363
0.007907499993602794
-0.04139770779835582
-0.01710596634916361
-0.03004948341080929
0.028949905456881794
0.04818031947857723
0.0021832429772761434
0.01532784128446129
0.009655449332639133
0.03612223655620031
-0.10765005815931768
-0.034318739592017776
-0.060663210278109704
-0.019180101265712898
0.09013974952204484
-0.04492610248069648
0.03520705156689681
0.007085433618818214
-0.06445032851491533
0.036467523901449056
-0.04347881477755586
-0.0025492372015717274
-0.04389730668244366
-0.0021913235629792776
0.07384817910175122
-0.010095909534866434
0.023632521329227656
0.014772648175015148
0.04057366705388451
-0.002245186070783779
0.09978214985500045
-0.09034139411943719
0.08182049028920486
-0.08756742448489818
0.09871790271258406
-0.008751920887453917
-0.0068814183875402215
-0.1726937276434741
-0.051781279677650977
-0.04046151137781423
-0.01019908626051571
-0.06348007488106125
0.09963783339339176
0.03442231467431161
0.09326439613092857
-0.0020656895914545332
-0.08978841349149966
0.04684446982917423
0.04757303593100032
-0.010964475129415806
0.038998432856432695
0.036002356082813804
0.022581899204167165
0.058697578777769745
0.04568823130343403
-0.10207832116500636
0.01093865331627575
0.06700189969246266
0.09759791954724562
-0.05955565051037496
-0.008830935268357059
-0.028798903693042312
0.1059994086279468
0.39245393928141353
0.9682372708383452
0.4072830297775571
0.1201732811802286
0.09666431320373235
0.02361361653585775
0.05074485442363407
0.013583922125522164
0.04045434370505489
0.04781350357718195
-0.01412203269321011
0.017525353372794795
0.05991940475157262
-0.010900841355985572
0.027084017860087618
0.031617858718815166
-0.011443068413450667
0.07184466735266096
-0.09097379195294705
-0.023121519720240194
-0.11578238448500336
-0.027520964589430985
0.043083711034007696
0.04696393852547091
0.0015589308866884887
-0.035299168795628326
-0.11588498868070228
0.05596236956388019
0.09529942781826828
-0.12768084060380816
0.02929091761171604
0.01699377345819536
-0.05000737965362739
-0.04198120957175403
-0.032029560999460555
-0.11307097958988153
-0.016316153272731036
0.049596971174614285
-0.13294679547506824
0.07210305418927271
-0.012053553170728839
0.013484935933956915
-0.08978165277163021
-0.04543654937465269
0.071019200830603
0.04848534474990577
-0.019146417592867383
-0.00863213010583059
-0.09094200503818985
-0.027715221685555992
-0.006424044756297926
0.07402846753766129
-0.11458438805428128
0.011032549951180045
-0.041751788835923447
0.019657593565178422
0.1775023069073681
0.01907223065574923
-0.11396430204097424
0.030386925216957364
0.0006964348212196663
0.039905263953359624
0.0156193490907414
0.007089768702150544
0.10281968676195813
-0.08203565166582555
-0.02429552066017959
0.0661161133870142
-0.059804694229776245
0.09202592700293556
-0.05398449855970108
-0.022193073412200805
0.00979611273119122
0.06676534901706851
-0.034777780683450145
-0.024305364271824517
0.008879987068848792
0.0249856430992589
0.048041328642918504
0.02181626839329239
0.042674723701788986
0.031688357216861106
-0.04161953125791701
0.02210877830703414
0.018411298623259537
-0.0074112129235901734
0.008865008786048758
-0.07122991174124976
0.03746936139632691
0.0067607098611124575
0.010286977941113967
0.014023533560467713
-0.03711703133984237
0.03613854644724644
0.052456001498279774
-0.0011535003550619094
0.004683279007116066
-0.07761027776513059
-0.034725704285332226
0.030953199738889645
-0.07001676574437625
0.060197173755282364
-0.02166195151666619
-0.013710484707062124
0.028101539546540856
0.06871206946508433
-0.012647537141609141
0.01743408174054953
-0.0299260928416283
0.1335314319984511
9.833334968015147e-05
0.030770621593845776
0.033384442982328635
-0.022273389527244378
0.03425425892344475
0.06070725267664337
-0.007066949332904606
-0.030045780292673425
