ecg
-0.06549753436062371
0.1471831708240642
-0.054813289764067775
0.04574421609630061
-0.03330303101152144
-0.025689374575412306
0.11506614004748172
0.4270741539506621
0.9668630843310894
0.49267635966291917
0.057699149177214706
-0.04112446843900312
0.0543363511519637
0.05024934403513161
-0.022088301161300644
-0.004208254259058871
0.06185080364682308
-0.07132394423627762
0.016901132943757075
0.09872855984767431
0.09825173819627323
-0.09699556093016216
-0.03813134821075759
0.008432969359664725
-0.06609384753167195
-0.03341233495662062
-0.006864550183963512
0.07006607823468122
-0.002270132764341821
0.01084683630811712
0.025621186618580163
0.027174434562121805
0.0014049731674100863
-0.05985435316691515
0.03948364023753362
0.0215744731631521
-0.05483761492885948
-0.034115078196013615
0.04437558072081346
0.030274156542383746
-0.036014899642940655
-0.01349668845378454
-0.007173111481534467
0.030850188785756506
0.06244703495699555
0.0032824579055612396
0.058460382347631124
0.04366584845447133
0.010282506700333533
-0.07217416758481193
-0.05138554320442445
0.0370620317522609
-0.08552647892625155
0.005948924594799266
0.05002428038810524
0.007621043112962975
-0.03006986227858633
-0.042330717843239836
0.04080763614406854
0.02358536457634894
-0.014274465049316513
0.0532646234422975
0.04269988932474506
0.08942969286627313
0.028344703539354362
-0.008225021708095226
-0.007149546735376332
-0.09672850977505248
0.007532952174164036
-0.0007857469926223321
-0.06650370327573925
-0.0012643812785563986
0.06715841061483895
-0.036727382497376324
-0.04799473160569531
0.05524641092250746
0.03171201481321449
0.153054760718913
-0.06592850803790563
0.036019362101909834
0.015794545357615788
0.002964064202659794
0.045525610924733395
-0.0014862678843695022
-0.09681881049923002
-0.042367876405632186
0.06822167236601594
0.058601445190220015
-0.01865595948251814
0.02517985320724088
0.13919690232449186
-0.0015593399083422088
-0.0005791659890996853
0.009529935255726141
0.030348785478431253
-0.017445059138637573
0.030306468154954243
-0.09721147968747999
0.01681993818931262
0.0025314905457583157
-0.010872848845201205
-0.023762867420023787
-0.03046866879422068
-0.040676054848001165
-0.11590341240939145
-0.013400917592143622
0.05481648947705445
-0.01677055120354198
0.03175562754509896
-0.05401004350202428
-0.06528487770205453
-0.03753809215338364
-0.05127499348600781
-0.05915198056675263
0.022488701924436683
0.08894621719429807
-0.03334716874782564
-0.08459091281251516
0.032839866558198996
-0.0717950409687016
-0.05916328107272095
0.02474978270958475
-0.008265480727678123
-0.034358758766625516
0.0034175625551914456
-0.020470441528577885
0.09447738280632915
-0.033790236711069836
-0.045670626866120764
-0.022751658699378313
-0.020638080659505325
0.029782182590216068
-0.0995768893265707
0.021301293341700098
-0.02706427208199837
0.038841150221280166
-0.0023821855578522177
0.025934722885888984
-0.01957009060409159
0.02190112987108376
0.08318848947241256
-0.03696182157275536
-0.005359723758056304
-0.024310864287656206
0.07964908971297324
-0.021697079950502587
-0.03663461006519222
-0.028913845698206875
-0.0067858691159116
-0.039675250883630546
-0.01842249945433484
0.007860092754853899
-0.005773670496186636
0.04158542884879237
-0.015967753890738904
-0.010230825273879428
0.013553087437113165
0.11224033030052818
-0.03938009551794358
0.09618122060726397
-0.05917865839722689
0.011448521611521881
-0.016969314658909843
-0.04076354682609619
0.034954619092999455
0.029994831685550297
-0.024062406691175302
-0.10468970020175315
-0.02100237323137581
0.006960205547840808
9.068055973381154e-05
0.03779676408958262
0.09667713147149959
0.020693741862540374
0.02838841838788124
0.00740908656895746
0.058621789119612126
0.026570000548016483
0.037455283848216184
0.09044784145100813
0.011349215060967484
-0.013548113108386937
0.022314467400095905
0.056812115855963144
0.025071337851304082
0.05303192894107053
-0.03344874136583425
-0.043404211270224376
-0.02725188076735457
-0.06336911507561675
0.005514978931671075
-0.021501269292495805
0.06151056768221892
-0.0645612181098735
0.0777461338318301
-0.04906001676187747
-0.06191154255741749
-0.041232566382553626
0.09756400428678771
-0.002004256868650157
0.02647177558269014
-0.009194586886401018
-0.004503931659010339
-0.025294002661714707
0.0025371979427633203
0.024729994594085716
0.18391527549114478
0.4062765562570244
1.080541015469625
0.5263980213513237
0.08161186086734866
-0.027386174147966444
0.052183782268437486
0.011448926909427011
-0.0767032559349464
0.018153480166865434
0.05721857677373418
0.04289323293942331
-0.03134289347690772
-0.06710036520266781
-0.016298657049074437
0.1626992563043803
-0.07724994742984988
-0.04213675482434612
0.019602094486629792
-0.006226262379684212
-0.010010244786553484
0.10123604990005036
-0.04266299710189884
-0.000714027385254734
0.010095372090139776
-0.040236834253774806
-0.07203263694034083
0.013465882712626932
0.09068332879394538
0.02022914475587624
0.004503629349083062
0.0041365217900239505
-0.012920886790871777
0.05917411600705013
-0.02527211368959317
-0.06783927422092811
-0.07908269628072728
0.003950450712202821
0.05303462315901508
0.011874262581096983
-0.01586843926353215
0.022922064828098953
0.009310617194731289
0.04130952368271332
0.06632519437183869
-0.04771950642864975
-0.11697982818216993
-0.0175768399310225
-0.05096707336200357
0.04159790932872556
-0.036216689767354975
-0.09378893192819715
-0.028710072440383955
-0.07459871627294247
0.0795078859505425
0.02358209772240345
0.03237790545068569
0.02680132674524291
0.04200855796392128
0.05666710125345368
-0.026987267966229703
-0.07099808164958453
-0.04234668686238316
-0.0022624811869659963
-0.1282170990730347
0.05713629416469162
-0.09483736100914612
0.029954666291457058
-0.008403539460276506
0.014258766232482678
-0.023595987064507055
0.010860323894653233
-0.023593876205893465
-0.027809057290099422
-0.04486181656806529
0.07629149786254157
0.018345470854848705
0.010474843131617933
-0.043778089401598046
-0.011742416679465378
-0.049361460383646256
-0.024558176437472864
-0.06045611947804929
0.07945720661012756
-0.0378453045255798
-0.04375394114340588
-0.0662805137751294
-0.038560273079085695
-0.02474467137826405
-0.0024739776391598987
-0.03226611045987431
-0.08003055045138169
-0.07572874219081188
0.03398298345817094
-0.006139437457875738
0.03244466206267749
0.03901375822100008
0.00755399810763642
-0.06158653837549129
0.009479246008029445
0.06997983239263665
-0.022371401212906913
0.01703076256441799
-0.0006888977633595948
0.06861888982736233
-0.03388930464966922
0.05767659360039343
-0.018750531418490708
-0.034707297675374706
0.005493003652162437
0.017122845900375723
0.09557648032547142
0.015976878943435736
0.009663903092469292
0.0798071471950817
0.03005269721057683
-0.032213759008397395
0.0677985192654096
-0.03698093847146761
-0.03246236391668548
-0.042426034969395676
-0.04681225141389781
0.01665866474199123
-0.012895108227177163
-0.17390846068182783
-0.013413153097475636
-0.025895612790281713
0.04464126821494277
-0.028162930573018153
0.12696288956054463
0.06983967893851215
-0.019495519550488907
0.05748115394165412
0.02626058563454738
0.011673289824012143
0.04013261278037148
0.002703543713024316
0.01201755780387388
0.04116762581394827
0.10262263708727451
0.012559748610983707
-0.0226898332486078
-0.10146154275469943
0.09806517359818188
-0.01316208562859799
0.026740464504063345
0.09529536184634972
0.011380116046524585
-0.00973351309387398
0.07098364887718724
0.023036853378195967
0.029305280236170024
-0.07615804352358804
0.060295760362129275
0.018779403399582274
-0.0685794689861562
0.024254705580663755
-0.10312628369558748
0.11709876012564978
-0.055092739999088036
0.0805896382859218
-0.04064777740593267
0.028011285548535988
-0.04560641283047494
0.04985576109489101
-0.0117659370953626
0.023388977310385486
0.0007532190789497371
-0.06828323932418279
0.025205342984526716
-0.0251618742832874
0.05226563965038054
-0.01179299040753385
-0.003838195451416601
0.08414632321864683
0.11908183972539753
0.03930169778560414
-0.014357004871169268
-0.018733066417807198
-0.040933849265929
-0.03126190917767783
-0.013680487175198423
0.098212648349745
-0.009861083542676188
-0.061302650209905135
0.0020832633562691415
0.008906421288053225
0.0017817729925227945
0.039984561129260375
0.0034502755679516675
0.038436374607366444
-0.039017167702885755
0.08903647190726115
0.01262398941717925
0.02001094852035189
-0.039225594690665125
0.023591349563319798
0.0325532528335152
-0.058488421691254504
-0.08295457941938283
0.01468330118047328
-0.024438491172776626
0.012996073456786467
-0.06455180354490575
-0.07802529571913354
0.01033447315005385
-0.017489188047842615
-0.10553497605750893
0.1671549409053865
0.43461714659081213
1.1286662476055216
0.46879916355557105
0.12007802840629994
0.08234745051935927
0.07397169639144124
0.09930682031134414
-0.07615381194401766
-0.05679327487536236
0.011299863704701485
0.0419873718948857
-0.0005613721689819018
-0.08189970178566945
0.02482890794823996
-0.009712569411701729
-0.010311947947793327
-0.11389752089052788
0.03987421022391573
0.007260203014272909
0.08975822783194817
-0.0037253823265586336
0.028317006525951118
0.041590908805263144
-0.08730807793305956
0.13083499733007967
-0.02153961939613084
0.024728330107124233
0.032029100347457574
-0.04073920639951487
0.09234901657238015
0.013297763467721619
-0.010673631845366688
0.00692539811942211
0.03821260993045117
0.0005399082404849966
0.04409649551916199
-0.08424360694838696
-0.03739849949132451
-0.10694001574046577
0.09985040784214728
0.09919960638424673
0.03133080337664923
-0.05063090354565158
0.1194939136109162
-0.030220723906585607
-0.010660356345258214
0.007976670286536118
0.022575797100948484
0.03219013008521592
0.03419808187372255
-0.0072262042676952305
0.03340504758783563
-0.009460382974783861
0.028965171843611023
0.02486458889153876
0.03814236453990605
0.03189833495104827
-0.02212161874556487
0.02293550857795064
0.03266998689574432
-0.0645562194474353
-0.01370221786155147
0.03040569456091667
0.08546462473648109
0.04124500930643671
0.08861889934887979
-0.01991866950884743
0.012509524612382151
0.04028676497630592
-0.11631758567498884
0.07554016090572631
-0.09304549404273232
0.049847003413920156
0.03434158952713231
-0.11697965012574432
-0.11445306284664987
0.07162409587262529
0.060736102984327404
-0.04404318222441304
-0.04409394475220321
0.025630248618811042
-0.0006372075244184112
0.05271976079245572
0.023979046221654338
0.07915153969782676
0.04850388889568633
0.03603865245702888
-0.017606236015183695
-0.021266061708092237
-0.0025879492352650414
0.0920471534968604
-0.020313736469489217
0.0130264493537008
-0.11224014538536548
0.03379043650220403
0.11285991405465697
-0.04668190546314624
0.15872210685633792
0.009112030232832668
-0.1286465620692172
-0.01927691199839556
0.06652192816345416
0.09996586031249022
0.035904927412584185
0.0783797210439484
-0.05888927707461766
-0.03401307935969541
-0.08397296410008953
-0.03025315379959517
0.03809594932178332
0.010632788119150964
0.04339245183315912
-0.04682570087483684
-0.04377625134059333
0.010230510476245642
-0.03013239026526577
0.06509245840800476
-0.031370944218873854
-0.024769462146562345
0.02094197069342435
-0.019464409586374645
-0.06174721967687067
-0.05496779124160444
0.026888297920347776
-0.06793557572810302
0.06985822137744056
-0.0345199642150875
0.030810790848403043
-0.03152063120148171
-0.04576206899981826
0.012305184114509107
0.05258917335079501
-0.012368387543005233
-0.0032738676878730044
0.04037086805414005
0.042026362512577825
-0.0019245860009870525
-0.02217399462426444
0.004132797972251584
-0.009545574569417146
0.01564870759084259
-0.059713521342287634
0.013859078967937333
-0.035915170808537435
0.04529438057452515
-0.03362339246852577
-0.03275548835954661
0.022269941220587022
0.0007105944408098575
0.11383258131994188
-0.08146513052771262
0.005492647347737223
0.05648247424861852
-0.02891569614636504
-0.04552789223699401
-0.04354323238231643
-0.08059805898250423
0.06748523136553476
-0.01648086709032041
-0.02240135699001153
-0.10620490371650869
-0.07168542862309424
0.0732694877759547
0.015155283305028938
0.05832504149625531
0.051999621991491496
-0.05003101402864703
0.12149238643269844
0.09748662978006148
-0.02818832210615176
-0.17841026496799411
-0.017826604497203833
0.011914813106072432
-0.02838595173878454
-0.011076104834235854
-0.04143290181688973
0.04608173591769238
0.003181662018427757
0.047575703147147694
0.06111016731039685
-0.10871617820433235
-0.038526110541705155
-0.031201464682027183
0.12856861798443917
0.007450268345016213
0.040628029818153215
-0.09403458846372557
0.007160772624876076
0.048914649105812884
0.043098254253007805
0.03116997194581758
0.000650025324756279
0.00307843103127255
-0.08466330873548948
-0.04502664425935718
0.011547197819408184
-0.035798790346310276
0.03444191235163924
0.023339127513243123
0.06836851273609969
0.14791269130762855
0.5113630704567284
1.0373990217030957
0.5502551081149828
0.07462813570460089
-0.016466549915990104
-0.004841301869670538
-0.023776527208217473
0.05078434725317421
-0.03136552708386521
0.06258257356999122
-0.01834865994401913
0.02361983214196791
0.008320757438144418
-0.04879899041458334
-0.000994486474539523
0.01668217657252986
-0.003214634355524896
-0.06713532792531421
0.08507146217630858
0.004384974143086808
-0.039715128758176094
0.08103840117336372
0.03086949048601627
-0.06000849982008047
-0.052224737319993934
-0.011119735994392116
0.014865348942491122
0.031139991573196094
0.047508923976428384
0.026978620320007137
0.06733729893204979
0.006339657984023491
-0.037981969023911114
-0.00016754348294867945
-0.003449033017289601
-0.1289107714831246
-0.02806834295478293
0.01571018664752254
-0.021210778260589314
-0.03231046809114995
0.04556880979022819
-0.04582729123877198
0.03558113252354115
-0.06663722353941424
0.1380380967863092
-0.010784276345062868
-0.016163264464802814
0.05715329514449594
-0.020935242040322447
0.07274639041628332
0.018579691524326324
-0.005919895027311463
-0.011250295168518769
0.0603796085215131
0.011524360730175154
0.021615436559538508
0.027050093630181446
0.0066468092611345455
0.025993611317499173
-0.005916171134049529
-0.0024904315913287928
-0.05595574640133543
0.014888012545919864
-0.08597705033561102
0.014177903530545653
-0.014030800808240724
0.01872925547254891
-0.0524414167040838
-0.10596786840193212
-0.01754326534867697
-0.05229563344285492
-0.08902783416052412
0.0383991634847285
0.08006191135710204
-0.03984757178872751
-0.0037885413610726803
-0.015389280833990616
-0.03294492109881015
0.03318686069440105
0.05050707302143092
-0.043430359463280215
0.0022383433547451793
0.06422665169669471
0.03445181016074861
0.04188487192002442
0.06839926537212071
0.0677422586186625
0.051432131515153294
0.007246870739059039
-0.01912415087290459
0.00517388826565927
-0.026720334301168425
-0.09762434365053413
-0.013974953290002015
0.01787631219186101
-0.029363470888308943
-0.009638989361930396
-0.007701835798336611
0.06784283871094443
-0.017971863701245105
0.06783166910917271
-0.13562452459239868
0.06739278906645182
0.06487030574313121
0.04511273366945959
-0.10059590016018859
0.05094434976112405
-0.0025059587837625314
-0.12646687199623302
0.06490888539173481
0.07220865392744841
-0.09522560359325857
0.008771053765005653
0.06942955607220913
0.06150806567285732
0.04180305255797618
-0.13236264399487543
0.036477138331790705
-0.010905194918697143
0.04979287643592472
0.012808072921691234
-0.000994080514443252
0.03204519247046181
-0.008595668553587897
-0.0012138639945970977
-0.02776119995643809
-0.08027044955922813
0.02839267368856357
-0.04030151598352849
-0.010039593302036706
0.01434869792269667
-0.10426088217827195
-0.09306744518384118
-0.014986928830460142
0.022728174114982784
0.03720191353245806
-0.07956572479379537
0.03183157422064075
-0.012253480915816819
-0.044157862254823856
-0.03242759280296854
0.04009286660200833
0.013700289254278575
0.002515326137766023
0.012174786940394993
0.046404888830809676
-0.004854978370166164
0.002715944322711829
0.056908537006890275
-0.016579331213157928
0.030907029764034075
-0.025185224033657073
-0.020793367070589236
-0.005202487839981833
0.025763642649338277
0.05970909812755344
0.004827263176938756
-0.07499184556617722
0.03157231467669689
0.12269210870728547
0.005433441553367522
-0.08543838195897897
0.008482644473542562
-0.00015063015919196203
-0.004355442168119474
0.04727049499885663
0.06891373931678621
0.03417928726005414
-0.0066529042335534225
0.05628393921848149
-0.07469148206071204
-0.03580280603669973
-0.030231388930086485
-0.0015475323965967282
0.025336733124341884
-0.010035647416864187
-0.04530178972511374
0.048742514234806515
-0.011772836110234691
0.005106446043551683
0.027553387273795395
0.0019438803961473435
0.0021635847372145126
0.051523671021791485
0.007568473728518821
0.043139849289524454
0.02723337221591949
0.1008443772093458
0.020470670893456513
0.03189866350753865
0.05508283569981837
0.0031808879975084928
-0.031892654836472044
-0.02370727905617284
-0.0232253462751244
-0.04751654840983592
0.0158902584600942
-0.03147582740245421
0.00974264106009235
-0.007933722185531815
-0.0020810746646257486
0.0278028323914428
-0.027094956219427393
0.03194455229683866
0.07836539333194761
0.01715545414758793
-0.03910478426362343
-0.030750900566989814
-0.01241314503925578
-0.029744514853478295
-0.04955901548050249
0.1077203638480846
0.48894013341371007
1.009486044177903
0.5593193706107644
0.08818235830378204
-0.05927100023401556
-0.019944624612677556
0.03852126085583213
0.03383851353584775
0.02593198238067835
-0.03123533615810517
0.037595130901634924
0.0488449539018533
-0.034771081494498805
-0.0020785048771262277
0.10102009818410561
-0.03699371382316938
-0.08525433346218625
0.06914522172323993
0.05683023858522801
-0.02284836617887125
-0.005649589093404326
-0.06124675250944761
0.004447613630485105
0.05829568576857003
-0.027130242087913904
0.043855098939314635
0.023186192869521602
0.02889084454405698
-0.024215459029318417
-0.01773120914667472
-0.09233862172357009
-0.028333470625505282
0.058174272901562955
-0.04646660970511368
-0.03901508269284524
0.0320094911853562
0.02013841459965468
0.03449316248981503
-0.058161027004520194
0.1282028974650173
-0.060787668708362524
0.007712365686703406
-0.00793277479342932
-0.05933207586825238
-0.018510471140662493
0.0011653800442934807
-0.0324986605931735
0.04686118107674246
-0.008081287273123556
-0.06706373355091433
-0.07130627663346485
0.03030825453057281
-0.07433853913501681
0.015821303652454183
0.022232759283347957
-0.04976776819620085
0.04453690418874452
-0.08588968118808162
0.014822946699927933
-0.0020428966798004314
-0.005949898786544685
-0.05889483214902863
-0.04685110021999629
0.0809401012510299
0.060757750443587694
0.03710422942618993
0.04699240517648439
0.04230067723356344
-0.016167810614310437
0.0023801775907175663
-0.07362541890205045
-0.004484781340376309
0.05917071247695933
-0.03303536241285678
0.05115706023436132
0.004579286934688153
-0.06926859328348661
-0.05536597566731558
0.04596514348538775
0.027626204262919247
0.005088203649381269
-0.01370159071239728
0.010528398881429273
0.04401481246266245
0.07379266402436424
0.07618420997203024
0.018597995037924905
-0.008596584518226029
0.007312400390942779
0.02610601786275399
0.025903347192254574
0.06539933185700525
0.10578778609583275
-0.010262731480704322
0.10779424544122312
0.05861196233791968
-0.005041149509260396
0.074928241943254
0.08428241507095825
-0.02301477220969234
0.08661076262428241
0.05375414105179817
0.1184279563989596
-0.02120192909997495
-0.017671337186799804
-0.10133310648716701
0.02855969602839811
0.01876256278093592
-0.028149683576783338
-0.004092536574402902
-0.06556105050875576
0.059922247641584304
-0.024484973726415508
0.15470245078104758
-0.00878006503555164
-0.0379809420524155
-0.020615655936743096
-0.07059804882721257
0.024113594535147113
-0.020994984988956113
0.056562639519886895
-0.013737374758720873
0.06922210558428234
0.03787278746585205
0.0014298388359172034
0.07901162936754108
0.04761467305186048
0.14731064133316127
-0.020472762248910228
0.0038308052729230306
0.07843545055054649
-0.07717689059175563
0.0658471781616281
0.021965137884073543
-0.044410537772362396
-0.06815198292755607
-0.0336244736565142
-0.1142409786162786
-0.024476972184575188
0.031127816667129084
-0.023815032048441393
0.06941563507169039
0.0829973801362644
0.06378222413128871
0.011532045513218249
-0.11623396362432346
-0.0351848746016303
-0.007101926338719343
-0.044693382475240545
-0.006975273774328553
0.08050337343466898
-0.08228882647576591
0.09058460280595133
0.044236321087706865
0.01341084041388478
-0.03568082778703819
-0.043697517274571274
-0.081310885729437
0.08583827401571935
0.07688057800370207
-0.07031423142916411
-0.02763139974531007
0.02165723846159543
-0.014975456908610402
-0.09593373785159089
-0.03288863802778441
0.09755171490100095
-0.02949892952072221
-0.008173366835110349
-0.057258871201769035
0.029388149264187403
0.005757589951229185
-0.03710098707784893
-0.06523276979037125
0.07022716870054378
-0.08027717033205402
0.02519078477947775
-0.10769396223557866
0.03536058415061912
0.04851494436300304
0.05473918558199568
-0.00806042342849341
0.0792001802781848
0.11538958474980342
-0.016081156802298165
-0.022550251506496383
0.007458863017246783
-0.02388400729471036
-0.03119350980050603
-0.02683692701207548
0.08578780040031227
0.0385940997517716
-0.024047306362904558
-0.1227562512861143
-0.07722322468032339
0.025171454130093886
-0.10607779706944087
0.014649676372597786
-0.053278186243251285
0.00459028872903367
0.003192815066707143
0.006029496694535531
0.08027890764607397
0.4786357187196134
0.963960479053178
0.5241946158620945
0.14025963373904743
-0.06094862612680632
-0.0025814236146134706
0.0098291036743869
0.009188556731152103
0.008338480979825888
-0.02010174051726122
0.013951521273126958
0.030901435549181008
0.007051832791128209
0.0252969918266862
0.04951767055187536
-0.0925470178947634
0.04717319209326838
0.017121388261063734
-0.055581266386936334
0.04012354411598443
-0.019916045301198088
-0.013098321815927648
-0.0253839891232831
0.01511994221191123
-0.03926765712560266
0.0450737314973893
-0.006943129359733584
-0.018210124174396877
0.03764378388069851
-0.01597783811595403
0.047408841268115065
0.048979647542043286
-0.06674019191094886
0.055463010111146197
-0.07310179857509429
0.05857902634412554
0.10141785961151195
0.04374172191345658
-0.10784903223498365
0.05317828596930092
0.11230644829680059
-0.015151582049901463
-0.0017351660014945048
-0.05942433609632161
0.01560397094098346
0.06345885912715646
0.034886856407472695
0.15709834886438995
0.0016513521482898641
-0.08153366837076322
0.00854854857841096
-0.12082258826062449
-0.02665519624322568
0.08121910293001061
0.01625668243158857
0.00897084064156344
0.09103901883576782
-0.013529994583168501
0.06309102064670545
0.00646534875831702
0.019002373172951312
-0.06086524279315064
-0.024102339741410846
-0.06987591164219369
-0.00476225391126726
0.019520117195813345
-0.0555019052545726
0.10245894613424117
0.013905300954598042
0.002889779279260964
0.038482887567281264
-0.0414464040432961
0.008173873958372666
-0.03584331101787956
0.07793399550444914
-0.05293196746985407
0.0031582729653586816
0.016465789257588785
0.019741287220385068
-0.029061758654141612
-0.04477547010725489
-0.028339758652304953
0.026416271710514118
-0.007192288545598182
0.039810440422626076
0.023850185969753662
-0.1138456349049804
0.012374889841860548
0.1125227383908135
0.06626345255191655
0.021100658035348437
-0.05296960652349719
0.0238776858062823
0.036987496993912954
-0.012687334041379195
0.015837102940221875
0.07548312291980203
-0.042863720987086296
-0.05291498024795635
0.034634966299710634
0.022877131809904014
0.051441914770640584
0.028489690595188483
-0.02838775315870969
0.021609632573270244
-0.05710632716480868
-0.012515935586649691
0.025139961548320208
-0.01802571083619449
0.12340260911149135
-0.09460921244118335
-0.02737451784994054
-0.04688899169349552
-0.035017440372897675
-0.03214991117404393
-0.06632103434294966
0.03763510742863137
-0.02735476486935507
0.008178666779432736
-0.02174128809551225
-0.03454402061431049
0.08361396180434248
0.046146609110470395
-0.09341001999775725
-0.09870687241679435
0.05213044178182435
-0.025992669577437694
-0.08245411669671114
0.05228675662701705
0.008456202504954517
0.012578554241615981
0.040476963600295374
-0.06549885791411968
-0.08157504106920824
0.0790477147451601
-0.07185833803711462
-0.061111889853778203
-0.05112176897728831
0.10399729618452612
0.024669165020576127
0.04827039872176901
0.009808377278936426
-0.030094360560061678
0.031564564163008395
-0.07783079853984018
-0.054764172604824746
0.03664875896307406
-0.06786276154133901
-0.009454073458093668
-0.007175617217770585
-0.026433100166858098
-0.09755592374244286
-0.03144644455943463
-0.04124841884662428
0.008071993164384934
0.005524526934973434
0.018898072996843707
-0.033799313648719874
0.026138897523294593
-0.07780033663868416
-0.0910952366326177
-0.1167786362083314
-0.024964861978599866
-0.03766491121692788
0.03946578059273
-0.032433129352443496
0.01366881739721336
0.04066482882915386
-0.03431595378245579
0.014902610505358778
0.050096377447759737
-0.06190813874027837
0.0012426169122322101
-0.034101719159965724
-0.058724494124656926
-0.07682258702451145
-0.05953242860893503
0.0030014502876006136
-0.08054222277808734
-0.02753635120443186
0.040659720342644874
0.022450548170946796
-0.02652538114690785
0.0844845206679362
0.09465182069558305
0.001306121576986288
-0.12342714579421542
0.04432240985081298
-0.11469881700167928
0.07380730553600331
0.054179245037114944
0.08871062520690104
0.013013277918386338
-0.018069288359091898
-0.022505056684511197
-0.027313008551544855
0.04905343268373514
0.0356135744752939
0.00601128167171065
-0.03610906539634861
0.13146063156501364
0.0456187306981435
-0.07988559598867045
-0.025812800796856352
0.046588804870435284
-0.039976946061634204
0.11757739794129445
0.5475398150168074
0.8305785958671803
0.49459811501053746
0.09656045767825609
-0.02060362278418948
0.015084756747302044
0.03287598037479374
0.00710254721623046
-0.018691369702471608
0.03163106498921348
0.0024526704637178537
-0.011535020659773913
-0.06561396926694596
-0.07813273926330393
-0.06656148963570352
0.013916453061010746
-0.003953937380317583
-0.07401420491037317
0.032295891289690556
0.06871547565895476
-0.029924680835816793
-0.0870490928684187
-0.03545631924509564
0.04272303133973471
0.0274264929267387
-0.04612163430057395
0.0760586068882371
0.06741400329631994
-0.036650303163832054
-0.03716450014824834
-0.029641396868974476
-0.025366638769427297
0.04752690039642219
0.021266453023829703
0.043853938467529385
0.033678257159335
0.08572635340968661
-0.05296927719045702
0.019017926519195816
-0.10869106281173489
-0.06584777870484292
-0.0037426692967423535
0.020910330637726803
-0.005090787101478478
-0.028359620940633913
-0.019470893874651885
0.06847204882120521
-0.01920160889400703
0.0874620811021764
0.039700853677056676
0.022876867307411515
-0.05967984551604978
0.046761908069981345
-0.024688528887424965
-0.05972198790028499
0.025642180653968873
-0.06939730302832699
-0.038112073106479114
-0.0005057955734455697
0.11092107120573638
-0.034345787789624375
-0.022910825965028768
0.03661725272108226
-0.061914784418802306
0.022140319051045774
0.0602963403808294
-0.015354744235555065
0.05130771406984328
0.014572496160590313
-0.03653409819018903
-0.009890234294825318
-0.018987866999012105
-0.004381912890823877
0.007635894960991426
0.029409996748592855
0.025433412479356782
-0.12158567856310741
-0.004865409438601337
-0.07547109567033813
-0.013786362623366293
-0.006189479390545999
0.048807417904235456
-0.0015057733550049798
0.012960900917163003
0.03965281903287146
0.061387612990965006
-0.006150696167845524
0.004708972084020442
0.0005011651121126855
-0.027129948221553814
-0.03845576117211949
-0.11359429582129676
-0.053833046726216485
-0.08893154166049018
0.06275992422266262
0.00942080041487142
-0.006296948647341684
-0.035874259304054086
0.001488963161731194
-0.04239899388276671
0.008700927831030185
0.01228669914606767
-0.043069185117837194
-0.0440230982411203
0.04810996772975587
-0.002642997714565016
-0.03905102146324454
-0.01852531508447595
-0.05052970433533036
-0.0033591790330958445
0.04158141538322343
-0.0013835333797130693
0.11818167218376924
0.021067978402450078
0.011497722392110617
-0.045415106548290285
-0.01192667234213334
-0.03895069215168462
-0.1082822614202062
0.04871311110644039
-0.025572527777511556
-0.03802000371666531
0.010528501697923243
0.02562497761107585
-0.016038741645313936
-0.00013008338045091813
0.03730937036572015
-0.018009679730497382
0.0151166870881667
-0.08296223091945752
-0.062065949921387434
0.030276988904020186
-0.06467793195836492
0.011706877355664806
-0.007349939109853636
-0.01822336312601144
-0.04142313844838641
0.045467000905268784
0.08649455772599178
0.015009608130009722
0.016124535783640863
-0.034116531492874705
-0.059804861591219
-0.001986945240308727
-0.0486874823979038
-0.0886305064157911
0.04017229061827912
0.04260833941259165
-0.04294193864765472
0.012198216063962214
0.05009761338958834
0.010251334353093946
-0.05965773230493668
-0.011644670661854935
0.06634047100209954
0.012351332180255645
0.02695660515914027
0.017081460968455718
-0.04277556789891267
-0.03104226096413214
0.01694325785258712
0.040843589001020406
0.05499524754589413
-0.04290527723840967
0.021656026733859687
0.05935220558594883
-0.04935408851440112
0.07433735678998869
0.0819470413672095
0.13125431698108303
0.011546672041499737
0.011821233813122431
0.04134971945586589
0.03989013365247083
0.056318343049780284
0.03920165902325519
-0.005303095451901933
0.06109985604867511
-0.05356270748463629
0.00029261683626882133
0.07818678080248997
-0.06251232490601598
-0.033873782849858154
0.03358736455386457
0.019695598661807617
-0.04375127038281225
-0.02080970013650703
-0.05903910313251696
0.04902424997602861
-0.012794067883526584
0.08960779553803162
0.004055012202001075
-0.010987015170143841
-0.015841088064589882
-0.012209991759621418
0.005541054756690151
0.12562037882891594
-0.016942983504967972
-0.015317673038565474
0.0032796922841589306
0.05451372531721302
-0.07104922805363896
0.022754636845482262
-0.0408712588010581
0.027663634447547453
-0.02468799711802281
-0.11520511698786434
0.018478880134374265
0.018057238517343432
-0.028954015423971493
-0.03191719300715012
-0.06556863625438263
0.03865499707694358
0.044110789123340405
-0.043952544258794496
-0.02699672297694254
-0.0031644560569481736
0.21354326405177734
0.5272560873794466
0.952829224249581
0.5151890154745252
0.03116542296809592
0.03589951549580855
0.08377736967722427
0.0839895842541979
0.036744675173716934
-0.02917061779340648
-0.0650450878257063
-0.07001025216845545
-0.14031085547492717
0.03469278815039608
-0.0051417760112199735
0.04546080832265637
0.0714015742617394
0.004995277195120489
0.007298080485657509
-0.023216017224873323
-0.017304220858620403
0.0364234956236467
-0.008718751518265525
-0.01595038333764119
-0.0009158429721425586
0.04431650980307948
-0.03463307789150513
-0.0033264258776016333
0.01226389188892149
0.058011095179261965
-0.011964838839970944
-0.03589116930258611
-0.024218047213617776
0.05265287165076896
0.10166526493017324
-0.06568789068430164
-0.05476508075349286
-0.008439839335107264
0.005547804803402171
0.03934847827774977
-0.04455665043007432
-0.053155451832473215
0.006904357656681493
-0.012920036010358422
0.046336049888576245
0.02436799015951919
0.027768967381660944
-0.005224067318843328
0.1177790129284103
-0.041887399079688
0.030540491687738754
-0.06348449935365537
-0.05367338388697262
-0.03036727993827275
0.0814661668309013
0.013194721522700957
-0.029523903427218764
0.01872181629772866
0.0017573940712254283
-0.02459866845695599
-0.06983144278941138
0.07192712422561451
0.0104909064355021
0.10868691867341194
0.04701608102704399
0.02756598623805212
-0.021760216430848352
-0.05476727819284584
-0.010886549224422361
-0.05621462971029154
0.032509519036537725
0.08163262488485652
-0.013045613305856511
0.04722454861955985
-0.034461453510842836
-0.015123341910367556
-0.04074819922827215
-0.10665665175352552
-0.0018266674959305298
0.006422586879887633
0.05329304993808187
0.039771912633464385
0.040447644951949774
-0.04870181115589385
0.022974865303534604
0.07912969827407962
0.01899339253545406
0.09142968065324987
0.10094830555599317
-0.013423413514582273
-0.034846987254028586
-0.03807310827094751
-0.07580679100516101
-0.025920144970776094
0.06038327248781233
-0.110201878762562
-0.051872670035687324
-0.0063565720825998805
-0.043859260031085014
-0.026364297212011018
-0.02561648372111518
-0.012877011003087444
-0.036472734805486934
-0.04056066069277741
0.046715487296061564
0.05248270889301726
-0.06902716726237047
-0.1379798699636442
0.053168742478546555
-0.06144002092760688
0.010637241922986993
-0.07828359365141087
0.0648877492629836
0.1271833947650764
0.009140345460266831
-0.004705132422975834
-0.016106978759503194
0.03908996556564559
0.028384337546729282
0.05017492267764323
-0.03139582612990413
0.01700588532023225
-0.027123403335309805
-0.05288578240350272
-0.002050771050173181
-0.04612563651885411
0.058686349887129424
-0.04309601890079115
0.01817729703436799
-0.03017111493798612
0.013853137521875607
-0.026199828672767822
-0.06286056374287688
0.024188637047592262
-0.011770781095661095
0.014299247036122967
-0.021442146781521884
-0.0663968256884226
0.05415892985281282
0.03683788777205441
-0.028348048777662196
0.003488960674939893
0.05210097415814685
-0.022851916793119847
-0.01509422525952759
0.012181625000368684
-0.022954553177729303
0.042854599849351124
-0.008445039015371896
-0.039201793749698705
0.030431941493699727
-0.05710653247156734
0.10074392805621069
0.07912481817901013
0.025674773846050766
0.0214665510909951
0.019122070890964925
-0.024454739295945355
0.014865482284042116
-0.04615663052289242
0.025190920922009058
0.04339234715156477
-0.018904305049166726
-0.029755089707735972
-0.06062385123239549
0.07289776167828455
-0.02578320169211057
-0.009936951800831158
0.01500777924978628
0.014110382144496732
0.037328004784053494
-0.018966495991916438
-0.056933396923545654
-0.0656832654486158
-0.02896276164214233
-0.047592523733731205
-0.01518083526538791
0.06537894053799913
-0.01886391029418445
-0.018882543066727837
-0.0008199388127894208
-0.02028124956060331
-0.0033695617859097002
0.027043461124067327
0.0442375527381657
0.050160659986951184
0.102842611036551
0.0284679723086219
0.11172394506746547
-0.03882409040298215
0.10456424512122926
-0.019018802710979513
-0.014100946538151771
-0.005993627371143673
-0.010931035557936557
0.004292019836325158
-0.02900140012442197
0.0414981086535686
-0.027641751731058983
0.03278051991264458
0.07638618097618823
-0.01785511849038699
0.13971917089895888
0.5279579644451592
1.1126443441109874
0.4747584717577525
0.13975358084028922
-0.08130055458882766
-0.02479292053684065
0.0176696418798454
0.06965799845448906
-0.061296668249210144
0.03930453203705553
-0.003161172824147947
-0.07607638266961564
0.0090793422974395
0.0854580616489106
-0.05602113299558085
-0.0054968857685091755
-0.04933194923197831
-0.023429146595500792
0.07160850717623167
-0.013576223774569128
0.07007828687576634
0.055452702396579324
-0.0181368956742224
-0.025129973030311628
-0.0447999403407251
-0.04654405970967021
0.017660369725392155
-0.0009892657607482801
-0.031180271746460334
-0.07743814610616395
0.005308938391110591
-0.02347760895306666
-0.0097648847791047
0.015233091434904087
-0.12509014306939317
-0.07666373018545625
0.11482215384025943
-0.025330525334980886
-0.12587165511987647
-0.07249700897581263
0.12422336843207167
-0.035149873013492004
0.05795076224485784
0.0060558999168602605
-0.024248351874948556
0.038772273538154635
-0.11921783376781442
-0.07205663099283015
-0.02461755060697804
-0.06714521991348042
-0.02903888942519858
0.042685652284141395
0.006606836066799048
0.06653085177547946
0.00976876421758722
0.04962304157472633
-0.0032035150064248785
-0.02951377416798914
0.07402840277709442
-0.03546751439680334
0.01719224115621497
0.038444868161223666
0.042074635223542836
-0.05827213351100098
0.05259752029141329
-0.04894776230536351
0.040535182767499685
0.02675867355245495
0.04093153308899493
-0.06025017605495138
0.02939648713671958
0.05427968382040859
0.009669789158087033
-0.04093083398022884
0.04598738071639952
0.005695981405038492
-0.0837222131913848
-0.04480947311583302
-0.02631472656134869
0.07529091438198282
0.06650915431531072
0.0663484265528338
0.011618013884193326
0.04567973958895996
-0.05703897043429454
0.0003401549196385581
0.02258163508247982
-0.05374495286545601
0.01049560448209349
0.08433195929021722
0.02793848922803134
0.04587726033320603
-0.12262034617161313
0.07789844245764621
-0.00930611738760848
-0.038434315703502114
-0.008731892590496509
-0.07425110791404489
0.05239710308760712
-0.016769786138689645
-0.03693154060130347
-0.008402753284418253
0.05590078272880705
0.00657292003906103
-0.07048468847667336
0.02324904148705411
-0.04644899771613126
-0.10780505156874083
0.07480036063585892
0.02286149374138445
-0.003913533190170744
-0.017280475734834936
0.0698539750366658
0.15435775750992028
0.022439025928325824
-0.05148173411639381
-0.007723275943398805
0.02152863360470246
-0.11747641534959329
0.016724960088905887
0.021821256474653942
0.06631710989936102
0.06110616511865269
0.005558608014476811
0.07573184532901793
0.10178391595193781
0.0013975727622229962
0.02090935392338745
-0.08836486765552881
-0.07254866312205441
-0.041909815700475944
-0.02218091522585267
-0.054806151236903425
-0.0017997705988620995
-0.020685458383730926
0.05354476156698077
-0.0237386822741854
-0.11433589741077473
0.006287558626771009
-0.000709901220566957
-0.043102494070224685
0.004749994174851852
-0.053763229411316754
0.016491997681167134
0.13164622184649258
-0.09028027364533832
-0.025812104350458016
-0.033825256072456795
-0.021662994174377184
0.050996228979848714
0.027141327965951225
0.04243832513032118
0.001524775237679907
-0.06610496599724289
-0.055734268062998985
0.03731298537332962
0.008541594920664862
0.06301037030394192
0.014663105162339854
-0.05915074966660625
-0.026095090709157748
0.02824070748414649
0.03551662481193129
0.0427554316077344
-0.052426205660259656
-0.06005150830384625
-0.009490125987371036
0.07200367582667273
-0.0346934160404009
0.022748594530048655
0.02275305694694825
0.03803863748353067
0.08322201269741052
0.07809532123830532
-0.02973029169197526
-0.1048947720654337
-0.033926466768237136
0.0037836147023617667
-0.018082263884282856
0.09839494714640676
0.0009390152158224627
0.032685594012809696
0.010860715482367176
-0.017331659174541107
-0.09624058389813334
-0.003930881927074264
0.16273236465770635
-0.062222919991891695
-0.09074365221871122
0.09681946512844551
0.03710414849346675
0.009370994026171824
0.06813369311835289
-0.041575097147804836
-0.005329738045732589
0.04775770584504116
0.10551771839101978
-0.05842721573283042
0.06403672292801973
0.0190919530420492
0.008153053371470804
-0.0003864611127369088
-0.06923233103473017
0.14815444991065163
0.4608865489836836
0.9460154648748826
0.5442729479450169
0.13945670125733395
0.003950004180553121
0.05397718104058206
0.07129682907395576
0.06541120389127703
-0.026413948670098997
0.05070524656398561
0.010582048875432442
0.08629538851761873
-0.006186416813358652
-0.017823581868416528
-0.030689843842143835
0.009464394711777773
0.0233362733796052
0.024298114146363556
0.017458627015592837
0.03355185063399031
-0.011127091795719909
-0.043625765779593574
-0.047991399845682396
0.04875255476517343
0.023516115526414496
-0.0927918885475162
0.054837671339997035
0.09402175732013275
-0.035795842537926635
0.016808002313802053
-0.02367290468161798
0.03141534627355834
-0.05830044445376126
-0.0035722828549390358
0.04906570639993906
0.06178558696494199
0.021324790945984436
-0.01695226516048696
-0.07963005421718043
-0.03787748556196409
-0.023463670237739022
-0.034886689165080705
0.0029776484156807666
-0.017094386808564246
0.008606068616772154
0.06013136505238318
-0.020323111061468082
-0.06914334886271124
-0.03508537990624375
0.029179423498663593
0.03389718924763366
0.02030425985081171
0.0650368652944008
-0.009318153493849275
0.10260830740046621
0.04090935680529535
-0.12617437351039387
0.09003293149817831
-0.03834933050678609
-0.05170505947284654
0.02618855549164469
-0.08690902361682719
-0.03477346156608067
0.07785492703121037
0.02781087894987513
0.04061198904696099
-0.0328455300248737
-0.07691849994840516
0.03534087146568671
0.046512807812097524
0.044249669304055494
0.01045346150589327
-0.04835341217360354
0.12188847940298651
0.023989372149208783
-0.008694332079458394
-0.008472461874168382
0.007479873903677691
0.05348041310789904
0.009481406165272627
0.04292565767237486
0.007569884394660366
-0.005617694573519043
0.03206251966641945
0.03016430168368982
-0.008481705954757755
-0.037460347885712966
0.01708644573702173
0.00391743344812969
-0.027743585638537873
-0.04212002412683984
0.020523792194722813
0.027504752851384724
-0.018001605732743033
-0.028996851795646286
-0.04151275945185953
0.019112746957245946
-0.040198853682036836
0.11205672845103654
-0.020514071798549853
-0.12126071389363005
-0.001508583331456741
-0.003651673990940126
0.05558592837620943
0.01440631183638521
-0.04169175917199011
-0.01431959367483883
0.01637098858254939
-0.10823571251552054
0.06693108671952255
-0.04155849429023324
0.07085219104738086
0.01962325705632943
0.031479706819698715
0.057471171800063614
0.02865660263462492
0.03364431081587257
-0.008220822023069068
0.018608434073604765
-0.02937489074858715
-0.017170554979398372
0.09823475239844542
-0.04040967925252109
0.007715856331814036
0.005673451835773806
-0.015537723589039959
0.025720046828521893
0.02948610463706915
-0.046290959157378964
0.005067835577327569
-0.05411836693861785
0.03942743091586506
0.008824365518131266
0.0041164943358543635
0.032951567443620156
-0.013775514523420046
0.04570109796091023
-0.047422243637806796
0.07059382594472638
-0.02754555912774269
-0.0848089533847794
-0.016426745423136595
-0.02209840986271045
-0.016803699307501824
0.011582400774199142
0.05489211804441363
-0.00958529569485684
-0.034580878490945044
-0.05632734061418986
-0.02340913956545222
-0.09439124196251764
-0.03625665467581806
0.06220269479310932
-0.04116796022892115
0.03143579304001525
-0.0613241044904245
0.0885547949655277
0.0918803366532355
0.029551077827993818
0.09956263008217608
0.01778964874638311
0.03842585570747781
0.06309669383657673
0.008985922654922462
-0.07761887307925308
0.03944816776171989
-0.023592979721673187
-0.019876491047773
0.014894745823934491
0.028314043985868526
0.007506731700310904
0.03178647680786544
-0.03534285670300982
-0.002135189736164173
0.042454272522543544
0.0886395588218358
0.10632177944866045
0.021648834136386574
0.04200049133728037
0.09907895824075956
-0.03354180183667473
0.03148499263562917
0.03841714747430731
0.07239307180383724
-0.05685706902681112
-0.04697028919002585
0.0010691105552352957
0.018886383116081776
0.056143197686690384
0.025877188790613556
-0.00757066150551419
0.020823072237807036
0.015052223813722579
0.08725082149938942
0.008282947178426621
-0.019154170677628188
0.022480451503591486
0.009924265966926605
-0.07854966778373361
-0.0007826030811084458
-0.005036912270300266
-0.02719359328896581
0.051779164381148615
-0.0392839798305998
0.02278093097622693
-0.007392849992186527
0.10538475028233914
0.5205893145522934
0.9346212808054499
0.5095830445867392
0.21444737448566034
-0.07783816729393622
-0.002880398185775242
0.056161966241191
0.01508096239767985
0.03439834760580167
-0.11878330055463081
0.029912468731497523
-0.038084410311679924
0.015493864229157332
-0.0014717365454745477
0.11391665145808166
0.027334766188293776
-0.005631191463139299
-0.07548463796267774
0.006057345092494836
0.04116144391734114
-0.0040275945909611565
-0.025282817996872056
-0.028629333192315934
0.026757071772766036
0.03796939696545786
0.06806050576605593
-0.0497499946605179
0.02629887792088084
-0.006085197720893358
-0.0046117102316640245
0.02009129270170009
0.020382812681247368
0.02643840528957868
-0.0528735596097905
-0.037490570358322935
0.0742934137758842
-0.011028623374042
0.015300719900894821
0.0527333156021593
0.023172153618040942
0.02732613154860197
0.04472888396218784
-0.10583318804485001
-0.02449750775802674
0.02343028982497959
0.06938221535288287
0.0033047779827886483
-0.042235823087804776
-0.040904302480525116
0.04419306017265371
-0.010888679119594333
-0.00036000228951683016
0.03075150968861596
-0.14507618413467896
0.10001837557540408
-0.03655369175255307
0.012096818473678586
-0.08523485067481357
-0.021127055520251882
0.06223440231825483
-0.09580835898329394
0.056310004359457044
-0.013684804811619215
0.024358222011009595
0.032876220674255524
0.022071074974546273
-0.04324753258154133
-0.01822745732675118
-0.07307780886254078
0.024589816579403984
0.08510275770079628
-0.09122204433382314
-0.03808229530690178
-0.009088763794146665
0.008667071185677716
0.04395881507172132
-0.007609999017883333
-0.015797936322282522
0.05515653530348705
0.033099778353165264
0.026948898785054933
0.005625785579405714
0.049157610545992936
-0.03281546956151333
-0.039634714109303915
0.03730504934346621
-0.08125179846234543
0.004608975481824359
-0.015827917613125603
-0.07028773653264779
-0.046563378985813225
-0.005448804614767464
0.051698162824951134
-0.032647899562890555
0.06066906999524967
0.0031589613778258184
0.06551923510849855
-0.03022458043900242
-0.002440479405268432
0.018424180166849782
-0.008975523137075591
0.0476512073572618
-0.1103781862645133
0.121120276939497
0.042888730349758104
-0.008676591451750818
-0.027616083678867222
-0.04332103057242773
0.03228077370848685
0.049749083439617696
-0.008126306406494978
0.055349520648925135
-0.045363002338056124
-0.0541905424993418
0.09066706026227744
0.029555430676927143
0.0698424100906664
-0.04269698541938464
-0.04617626958843651
-0.017930465972877112
-0.04120294207695059
0.035268260511422546
-0.037556302846322276
-0.05858349290336452
0.007100770612761615
-0.06449930879126067
-0.08997319657376947
0.006662861693063887
-0.0874610021505105
0.03876396981477114
-0.0697666863126398
-0.1120336893209874
-0.01468983250703971
0.007229725164824222
0.024573753184097026
0.008600784950792677
-0.05296563105588712
0.035653059046330204
0.048006925323987315
-0.06028810642277693
-0.009050306932980694
-0.01372200135545098
0.011019079139401693
-0.010246189588705445
-0.003393888603648837
0.03209077651208455
-0.05569265498005667
0.036868656763041206
0.05705663657656255
0.08170674967444341
-0.10716836620686797
-0.009145082855760904
-0.09825502871767947
-0.1217531844886412
0.007204652380373925
-0.019957589642518085
0.014992547588537325
0.02430638450436579
0.06239479790539603
0.002696021265288997
0.1461677808659544
0.01532049274926064
0.09212395222836056
-0.11664189002621242
0.06748697647753125
-0.009038024489778017
-0.09741736297136358
0.02102725546140599
-0.015147776899215865
0.02900266242240711
0.05055382287755392
-0.0744575058380798
0.050745949122757886
0.00032397421103583235
0.06764205873466363
-0.010257411449893417
-0.02352044462657106
0.001352702034447571
0.005093035318992653
-0.03313924007458677
-0.024815236547764186
-0.06134377672568947
-0.02173225448950973
0.03381550299987895
-0.006867708695307198
0.05045326480236642
-0.009271473382653685
-0.07157589988616571
0.029863744377829144
-0.03368115705167012
-0.011668364438176732
0.061878602374205866
-0.058043522986075693
0.00823718937321925
-0.0020259175017895994
0.03504628577185515
0.042757668274101136
0.013191950212444618
-0.01801873232901999
0.023668625201298015
0.0667827948572281
-0.0013644969819850382
-0.013362805721151332
0.019408512883399513
0.0019363510184805853
-0.06688547119588996
0.011966540019874067
-0.0673381204381882
0.018724032320422274
-0.03985713622032837
0.001843740209317299
0.019529695309961823
0.12269516729717855
0.037137498089346216
0.06823994048711673
0.09358739093469623
0.02446279584997223
0.014284490013359956
0.04666394455868921
0.49416850337998025
0.9638456135182069
0.4799470574937807
0.19353316880962343
0.005731075459999484
-0.04379497888580544
0.06872667273456522
0.04776377381187245
0.05038267463001983
-0.10030651015511974
0.09743354788607429
-0.02792573710469436
0.03889773863963777
0.1261899895308516
0.10776663740953088
-0.04887810627363435
-0.07222586685011366
0.07151732994239639
0.007102790579699986
-0.025044072065103996
0.03106092734695238
-0.00814397887297205
0.03506620685243718
0.0033490903909366397
0.03611939641640834
-0.04472663445681943
0.07122310065663173
0.03488116853662192
0.03231486847017863
-0.05588349635059969
0.08498162083221235
-0.0006858049683134112
0.03640244312149206
-0.016141223187330436
0.013044453234104858
0.014856367605970214
-0.14099654660017105
0.029122406232741555
0.09826707308610423
0.02698901294959785
-0.04788541244448691
0.03249807830769435
0.05297402650866695
0.02562332580951935
-0.0037063553215021944
-0.012107461291196536
-0.012315487768340353
0.034888845050560634
-0.07035619975298141
-0.018593658042770328
0.07978049115054742
0.0817097633288588
-0.0739073543900831
-0.056570680563180445
-0.013531028976396839
0.04462947585571761
-0.09137371770264952
-0.002740431745873897
-0.023708957828982254
0.06629823371426168
-0.08384542369846272
0.004627030774681119
-0.01968047186742969
0.07348994631386441
0.029882632317662486
-0.029290782962886737
0.04266932216645412
-0.019441442665428688
0.049966485561987684
-0.011853849544278912
0.05273332893843816
0.021804097756362495
0.16302455403457117
-0.0026448002708002187
0.01914311458107243
-0.02397123708579656
0.0001342670377389335
-0.13509175670747206
0.023279200827051604
0.06714371064747059
0.019831500229967717
-0.06569307289886887
-0.04008935763545006
-0.12150960635781352
0.048946200343271205
-0.05032566463547902
-0.0014354295106113978
-0.0076868786163610025
0.07438635178291333
0.004264065898286927
0.04044464600530049
0.027323188207383123
0.06797057099806997
-0.011956184725147936
0.09348076652522586
-0.09928310781996576
0.042873674900061796
-0.04333098043320661
-0.024637477638997627
0.02847071334505177
0.02807010249238714
0.03032140068450357
-0.06930789720526191
0.07245151156396201
-0.04503235591138379
-0.03836435451125996
0.03189483690834143
-0.01433605873806203
0.015413042028124591
-0.1078300348316394
0.014216222475961575
0.010891593975610757
-0.025492926888214164
-0.10370379798823948
-0.010640413074080236
-0.0018686929899306495
-0.018361449516524752
-0.0918087232216249
0.0797367003658458
-0.031943076397218655
-0.011110233146145045
-0.12047371606091453
0.07974276743491038
-0.023327496586702808
0.004923140853710123
0.05603687224083257
-0.033815210235831304
0.04816224936932721
-0.1030662727970571
0.027549332878565664
0.07861210832598264
-0.02902084236090149
0.05594408101491995
0.09169613260968917
-0.012742091902700961
-0.016876414292493046
-0.0449146872916152
-0.025486507759256677
-0.040767994513631015
-0.044955554921361364
0.059941764835567825
-0.03949630126441298
0.01292609573598115
0.0019116717608118903
0.07490472812855613
-0.02515781160275068
0.019057402332716106
0.039553485113805464
0.07448748036602908
-0.025887667252263342
-0.030894623436619018
-0.05308905269800264
0.11181498104241204
0.06922362190901939
-0.0021100697156021613
0.09657195755635282
-0.005093169718282861
0.036220523571676475
0.0005085950861360315
0.019890272587523558
0.01458807212667735
-0.021249268668832477
0.05462492690426765
0.03579762088419505
0.05138472967507393
0.016011359274967305
-0.04532849408885671
0.08546930332788512
-0.013127811678371288
0.018203351428420732
0.03176906794111345
0.017871085810880937
0.04577085106151371
0.05366889611582492
-0.011241675152362398
0.08127336709778236
-0.013345177708063259
0.016837452444039416
-0.019383909180211583
-0.033673676132539514
0.05220955443954326
0.15609484487130224
-0.018087994416015853
0.06076607873390394
-0.01629556563500971
-0.0005242488428002226
0.0878791886115836
-0.0536767642537653
-0.06690795343115614
-0.00435993243815746
0.03318280139688372
0.023183328584044087
0.018033958784649803
0.00170659907557889
0.03932700134919597
-0.1456836221022486
-0.03754026525438704
-0.004680620464172393
0.03522673995512548
0.07448825700342832
-0.04425498540835701
0.07285393127682836
-0.022628083460068144
-0.006495489149034313
0.029071625939880677
-0.010161803965338646
0.05550588033331588
0.07976979274434282
0.4805232504359833
1.0525989977104666
0.46184378058661707
0.11244645476583301
-0.08302413338469121
0.09098196760305952
0.060327596811838746
0.13750535997903776
0.06691818657231928
-0.05648251148002408
0.033432493008029605
-0.04590043811109023
0.07890187535265493
-0.05505701439887861
-0.05745774421198988
-0.08049057268483434
-0.024418991063150073
-0.034473891239178565
-0.06308245529196327
0.0994904552121762
0.026494034819332248
0.02061172699283559
0.07945822096239634
0.012812889602146727
-0.03743401007525698
-0.08501048712588284
-0.04025286961717019
0.07527078002542313
-0.062766805784308
0.017656361899893835
0.05169625715427789
0.014267242022162585
0.019949166439529167
0.032780195643671316
0.018964043591132476
0.0804537086236641
-0.05201458641138053
0.01202124384193929
-0.09091202169985739
-0.10368730935932687
-0.004083551542599189
0.02716897844723784
0.08153338886187823
0.12098958665052316
0.06599303353327403
0.036358287219901426
0.007998242788690772
-0.07656140315916887
-0.0073018302870899165
0.0645188375629113
0.044914092801402024
-0.06431670733414742
0.030701282362924017
0.02641964059338602
0.017494506005736873
-0.0013927777688667227
0.03327919834720967
0.03486565194561993
-0.03207293827157027
0.022750703069104775
-0.009469757037360693
-0.07436169338731216
-0.028080351751908192
-0.07818448426727126
0.04900467675350524
0.01779446887771596
-0.01777453056029726
0.07102606716443242
0.0033995453790583332
-0.07156113779834372
-0.021973927009190552
0.0816427093636646
-0.03347378125445717
0.013761064437891508
0.037193831225731916
0.029497424227747135
0.12247298994790501
-0.05881516284616344
-0.05382315402664015
-0.05798772235510666
-0.014795921050844242
0.05496886940912257
-0.05158672898982556
0.05566802529719694
0.0017563334963868454
-0.055449834660546184
-0.08756849782839282
-0.07637852469046631
-0.03329267041169621
-0.008457558787166029
0.06730314883652257
0.03995441060941195
-0.041947062604015116
0.02043326416860841
0.08257731345961201
0.09369587105150178
-0.015720300577679824
0.04791442148525009
0.06949776834439118
-0.07535359615891936
-0.025620354357984845
0.11100093672116318
-0.015051805506045193
-0.14644756823505486
-0.006048090519336118
0.0562312749557931
0.0003255218400448044
0.03576819734003169
0.04691109988278659
-0.017746872571614107
-0.025969649320718803
0.0076720487977135834
0.008888946146494046
0.0027038409923485674
0.004757826134123212
-0.0374273067310369
0.037514345504047406
0.02996159735564832
-0.0668004183317729
-0.01945811585429836
0.004653993626972329
-0.02671565011380872
0.03186859887938969
-0.0033441269228568883
0.008453626472759344
-0.020035465374153665
-0.09966094117053075
-0.10251741607812248
0.02948047733460137
0.013345603824469707
0.02193311031755423
0.006723642103145655
0.010728370168675725
0.04845116868093941
0.02223096862007062
0.05204546751530564
0.00857309206132986
-0.015019087025988552
0.009710143107812293
-0.04180889407436484
-0.018992346445595446
0.008878565432001847
0.008215916595050585
-0.005320944000149424
-0.06940923550871034
0.03182047732103572
0.04171142032997746
0.08218452476261194
0.022088799829436557
7.309170957414813e-05
-0.050651475480507496
0.07460089346805278
0.012391648843701177
0.009668658691272824
-0.012702809908942604
-0.015898478321743105
0.03441333670254234
-0.0510720311329296
0.08127159295793901
0.0703763228769186
-0.017703077343354464
-0.04319322829365213
-0.10076029941777072
-0.06257069362421135
0.03649557464414371
0.01576709294503269
0.024682678265304403
-0.09227898176620808
-0.019790781005133214
0.06836364031410412
-0.004801370265967669
-0.06361473673119926
-0.005580116542145065
-0.03855087091826249
0.016683952997269855
0.0010272689443857513
0.027164833204114537
-0.06089618133825563
-0.02243582843325494
0.054521717069955455
-0.06771400272177408
-0.05015560080199893
0.009964865499603202
0.014336491954189567
-0.024442492137138484
-0.013921644131942502
0.026661278077782083
0.04248175008799338
-0.053461083264487966
0.018215976031397508
0.07560080000028611
-0.005794603068056635
-0.053991957689425954
-0.05630459544136082
-0.008036872065593193
0.051792365243380926
-0.0020377924923310575
0.009461598995296389
-0.0498170841086902
0.049155881648827386
-0.05728292855826775
-0.025224824213581656
0.0314957431023147
-0.10197157491599661
0.008698057484285395
-0.05195367831958906
0.000827469945455667
-0.017602780385596827
0.10529174126742442
-0.01965605945999532
0.09213256864416713
0.02934761455916874
0.05992705146351359
0.5165405462629878
0.9847795126831094
0.5121078745370617
0.06430545062833667
0.08450888166729788
0.04626990453983622
0.0015890784080795414
0.0864557384034767
0.0037139622041424307
0.05488124824305823
0.0019150293761212205
0.019694379740528928
-0.004071939047138977
0.004765067693696848
0.008526593019399951
-0.033486591624419686
-0.020053433346154392
-0.010837750824308594
0.011485550840114832
-0.0015289509751733614
0.058651626691285354
0.042355915948982054
-0.009816377801268622
0.06908919487259696
0.09365103117877285
-0.10219131474610586
0.04661450425331396
-0.03464920986657496
0.04003740106616496
0.0619118970323216
-0.043849629725527604
-0.09261635495078803
0.04177170441079325
0.00677012412418057
-0.08342193769513141
0.1264782252731411
0.031220970612827605
0.03350500200625762
0.06829088762810243
-0.0290411976423251
0.00652270560443384
-0.06596609568898815
-0.030397422364259227
0.019283000023461887
-0.08326423335662261
-0.03181447728390406
-0.04639669799688603
0.007104612281017247
0.028735063083267433
0.03710764021882285
0.049940832238907544
0.06860584232861855
0.0303622726841703
0.09436679494472078
0.0059751260632341
-0.008666057712527387
0.030365368168002
-0.010820558749629436
0.09262823643875248
0.0565491736567606
0.037513907209975716
0.006570967202067542
-0.020373858570743145
0.03506625022838799
-0.05635487259234795
0.07671817667205104
-0.008881835269268673
0.015255336662036456
-0.04548005380966444
0.036149313155961066
-0.02268708064191643
0.03246143951525492
0.03786967344886946
-0.03238160567942702
-0.05617645604569974
0.07659499582722724
-0.009614951701454096
0.011242440802281916
0.0242732262323371
-0.06268500649491103
0.023133306840994385
0.0049563268077318584
-0.032176534885219564
-0.05782679924188647
0.03029427739786349
0.056385600409743976
0.008929525869640147
-0.07172326709248435
-0.05286664085873652
-0.021606185466202688
0.0782309870580375
-0.01233753310494378
-0.023428446139909992
-0.08367423998380574
-0.032834239505505555
-0.061646817699541515
-0.05015899154614
0.005997534007937125
-0.020058210280558864
0.0849747226335673
0.053900168635373835
-0.03044419689051694
-0.04584089208702575
0.06913209678320964
0.08300212447417415
-0.10971241217727662
0.0046428811985850735
-0.012593915394836362
0.03245600700299685
0.0971334062080752
-0.024202850966389914
-0.10303492573319571
0.02895038500746318
0.06949820343021013
-0.015187989075988737
-0.035251874006983056
-0.02186297026888497
0.04251026835656174
-0.022723047064249022
0.01643801501714227
0.0013901457869970023
-0.003768980621138303
0.03506461633761165
-0.023928994993209718
-0.02152932800911395
0.0398801424999877
-0.04934626620843263
-0.044011009541116364
-0.06301571456717968
0.042450545663827666
-0.0052618484040633795
-0.06568075730395333
0.04269042811545343
-0.02777710807877178
-0.04358390394184427
-0.0097839279438476
0.07393618047339458
-0.019748109824828514
0.02876694320577923
0.0363540010225477
0.022163664900320304
0.06355358248371311
-0.03535580023161395
-0.052166742152516814
-0.05314833280124975
-0.007223420764989665
-0.04735233289202645
0.007377045593266423
0.0038494209862446668
0.050928665159302035
0.014557215411802008
-0.020807592793072413
0.02054246022163414
-0.05150970099489704
-0.0019070344012158632
0.015970061679779036
0.0064658799075063295
0.020753254746799205
-0.032202300785639563
0.0576015701404758
0.09110844746978534
-0.08013380724292972
-0.060779899797712415
0.002154150401219275
-0.012827549027643695
0.09482062028863912
0.010989216171223058
0.06962726268629786
-0.10245619432268001
0.0407084741666176
-0.03577584096291605
-0.03657712848098287
-0.012417901320606202
-0.0712291819865546
0.022139276266092623
0.009535748335839742
0.013309612409363522
0.0443515511066453
0.0757391023097077
-0.018185552454377363
0.023867531986823686
0.014649410416748969
0.01888072531644698
0.01962988322329918
0.07952516722824195
-0.022983843424464682
-0.0762867951601841
-0.034893688430794365
0.03786334667677026
0.0011664754323588568
-0.0233799670247498
-0.053824863420482094
0.011064306086526629
0.03222531376369046
0.015293602754801412
-0.012666516557747313
0.0073320642148731185
0.007042148327870763
0.00948484656088312
-0.05921524755095601
0.1098663175307439
0.4779701765766903
1.052030930300488
0.5066459320875137
0.1417739610911446
-0.015089069352487614
-0.013285691880572922
0.0747125623128166
0.021816759420775416
-0.03572572662028694
0.04484872193102373
-0.02666523667139354
0.011284906890576154
0.09183373154297025
-0.07156411938190271
-0.008789096088326821
0.020413582045101526
0.038234916733233704
-0.06206169536804364
-0.0767895134287509
0.05453746759952131
-0.036020742840191876
-0.03811412539986576
0.07751248363860834
0.003485115736591125
0.0038119113840787127
-0.008989972257576617
-0.0611991033371585
0.0337848474697194
0.02047252609628118
0.008434566266971633
-0.005816151963812899
-0.014615982466914347
0.045624169477370746
-0.00706465316030475
-0.0032030519266944553
0.026494657744188674
0.010398046534019309
0.08211380287702193
-0.08806833887366522
0.014995371918363155
-0.035280289023608455
-0.04710432673774647
-0.02285321030221739
0.002733970424088076
0.004953453796170486
-0.07586531078392467
-0.027054191483890974
0.01406107757382296
-0.043846522539182725
-0.05573919523582577
-0.11280661537464723
-0.03315967241876794
-0.0574814599475407
-0.0491966441555029
-0.013591015163982662
-0.029991443827144894
-0.058311894692965306
-0.10579207826166136
0.015115565257382134
0.03764136069042365
-0.01983724894971868
-0.013288784822713857
0.00014052578430615793
0.07893917883061259
-0.07838538969128855
-0.020724486293628476
-0.08609864820663599
0.01811592293677795
-0.007197919689400563
0.010149605646803877
0.007656128129553824
0.049535412685175806
0.026906648228423292
0.041525397883004384
-0.053276734494847204
0.059658543248757225
-0.03611813697444998
-0.03324347713119904
0.013542128867649734
0.015095913152463817
-0.053592840111623935
-0.008663964588694844
0.0744117658434738
-0.07341682807670476
0.07426096205063631
-0.012084922570824492
-0.11688774167175767
-0.06833658667414531
-0.04817387688675967
-0.031196465039137113
-0.0052356629312669
-0.13517400648807862
0.009340219623882677
-0.052754525416244216
0.06952612858005293
-0.01350883603719872
0.04714230858663648
0.05551744899571466
0.05416366217331084
-0.02832033714812428
-0.02896000788606619
-0.011248664964415754
0.03181186876894628
-0.025534763487708136
-0.00596312367951239
0.013679690816972493
-0.04524459630239333
-0.048405414416455884
-0.007913194070199527
-0.001291059252417922
0.021694274000082156
0.0335943287475778
-0.05495314102858243
-0.040604246597178234
-0.0485376143781551
0.07062237007957108
-0.006013529510126771
0.0008064647622510477
0.002888718200675642
-0.035783500685881965
0.07821347594730153
0.0205513327409364
0.00197952648889745
-0.055262821057528305
-0.05809662458281224
-0.015445376580288418
-0.0349995896785915
-0.0533722172773276
-0.018547900978577763
-0.010821401413794462
0.0070892710230134924
-0.02519597356871315
-0.05038003473300156
-0.048646044299562353
0.06064863646130939
-0.06258788431808712
0.018159114914563512
0.025977316488719794
-0.006063773791783444
0.08839145292025895
0.02508594965138496
0.09214515241523252
-0.03255320009574362
-0.03169727049467093
0.02637685793400075
-0.013073281865960141
0.08428327124460089
0.017085019181546864
-0.05222871099283578
-0.08684082042720129
-0.003911929617163233
-0.004456156476661678
0.015688296165419377
0.060534528687795144
0.05395566519969637
-0.02894505161682164
-0.06469097009022107
-0.06170605675045352
-0.03684008526606893
-0.01833657740195096
0.01525310694825835
-0.04004837984479899
0.014019598555665716
0.018102007292952596
0.007167194129794469
-0.05643114985063476
0.0233913362617979
0.10406348143833616
0.01229484134564523
-0.14765375503256348
0.062043978602345146
-0.03513738883496933
0.11328563452478463
0.005818172568298021
-0.08423503469929128
-0.10323487449793763
0.07698703813379393
0.05529524929586363
0.11130094428833451
0.0005462242786777678
-0.002826494168984021
-0.019135939607927872
-0.03291451206296104
-0.019621477722890784
0.010873166616201475
-0.04219503934560509
-0.08346446734369918
0.007993831700708878
-0.043309779934671604
-0.16197188624700345
0.027628369532850545
-0.05540295190585142
0.03308947273453674
0.03189240532579907
0.014179500576141646
0.1248408920178248
-0.006902592498618872
-0.014281978374929422
0.034183621070845854
-0.002772368105689638
0.05802467686970047
-0.06344029537877612
-0.062608722373217
0.03829047456631088
-0.05824054696693018
0.030454930322135716
0.018500142310518282
-0.034724414301383164
0.0183585080116717
-0.06172962228921197
-0.049994996313185026
-0.011859386920603298
0.0039463909536110375
0.08481807315060712
0.5216557981936556
1.0194233207524146
0.5764683404174072
0.09523573264274979
0.059728171559206435
0.04603627564469467
0.11469886416465741
-0.0063629009951137174
-0.021017936072649415
0.06288471111218666
0.01927162858706311
0.06408296083919497
0.035839939899475
-0.10533810456997479
0.018816088851559148
0.015560794897574474
0.006655345123198146
-0.0066121527061691445
-0.0796071763897164
0.04370884586191616
0.01868842140467473
0.055097834869871215
-0.07693777621376266
0.02535672447726342
-0.011732966877328136
0.007189400496276466
-0.011157981709044543
0.027180396374006495
-0.008143656049578988
-0.05259574625278446
0.004321270939309555
-0.01070872685677502
-0.0041696810564441755
-0.15939057380200716
0.034131804178435275
-0.015733180867339044
-0.06740767870091328
0.0461281758424071
0.03181828638764652
-0.016366009813742814
-0.05760846897600094
0.008901536733968618
0.006155304229380459
0.04621671414958909
-0.022186775743024512
0.05974610674324981
-0.027012650166788367
-0.0672915892271211
-0.056614137773864065
-0.0031205769567807773
-0.003275725452936614
0.016393057037538798
-0.004518701555922064
0.04886592580321647
-0.01305470492312881
-0.0998138132435708
-0.006054834423289695
-0.10033893438832407
0.013569549049884888
0.052859649949245795
-0.04931122431412596
0.07092783431959253
0.042141562236421556
0.06032400777075273
0.009478192821731554
-0.04963825878759103
0.039040771390706885
-0.031230045338417008
0.005894225305167758
-0.008567549640180932
0.0562347928398448
0.036516350296166455
-0.004028289915618542
-0.09758035967700765
-0.031761373326460056
0.03521111447422085
0.01400551305232922
-0.07516109672064308
-0.09032939862344447
0.00977545750787283
-0.052852858385788806
-0.04803982304187885
0.0336303864391327
0.060111939020783704
-0.037535101351814926
-0.0022380153806086755
-0.0037123332992180257
-0.008210205234825836
0.002029923807814932
0.03782494639200781
-0.033696217336479775
-0.07626387672580333
0.08450049668018803
0.05447109622450252
-0.0551818935624699
0.006781600438797668
0.05053510822930553
0.03745219722630196
0.02310066549646424
-0.008511344579587188
0.0863651962530979
0.011042943622972999
-0.025747962966034516
0.04355378644227977
0.004802932097571021
0.017489886362681117
0.010157460079560374
0.02483877868834549
-0.04892281266996035
-0.07255531935850042
0.0717066361616792
0.012479228089458463
0.03854236387042895
-0.08798796100888132
0.053334155435725145
-0.02607428226778838
-0.04031090834045223
-0.003168658381599318
-0.048899010527126245
-8.658491128034794e-05
-0.006816917350724327
0.05301979526169414
0.07566722510697349
0.07407578964207916
-0.11322574896980582
-0.04675834149216426
-0.11374433819111812
-0.059677113721751544
-0.032475910545191576
0.02052808076134718
-0.02599666172462702
-0.024603503547432293
0.00908823415998816
-0.08546548226039055
-0.04192965764819319
-0.025177831290868632
-0.01012009943156721
0.0038476995112772605
0.07503248948665209
0.045416808054054736
-0.03846550122459674
-0.013066452972573393
-0.016471956854606173
-0.025707625826037184
0.013625791291045495
-0.09298897764854541
0.04403571940032419
0.08467753953576777
-0.013492027033590842
-0.014468221255891436
0.007852212360433573
0.05096929884801052
-0.016214685840862116
0.04669725830508683
0.024424733622662138
0.11808057220023452
-0.0164331007581148
-0.09880002238604169
-0.0716469560342757
0.0005964118700078551
0.051394104701037585
-0.03262545702103619
-0.011546622493766505
0.03424213686657878
-0.048261630043922886
-0.030563469959740897
-0.05838633438051304
0.0589114046441281
0.07708364058981837
-0.07897074947465302
-0.0071092749494111596
0.07036294875324725
0.01993475918111189
-0.024461961649954733
-0.07730810598054494
0.05764722759114321
0.018025760747224874
-0.07364931938708778
0.059494552693749536
-0.0800201780878935
-0.01102430770837058
-0.013230735168606459
0.08091906644239177
-0.013052309594007631
-0.013232134315036248
-0.06815391724488469
-0.03201988395293028
-0.040864773044032125
-0.03826111830023464
0.00031422624459366067
-0.12170881929212962
-0.07551151227084489
-0.0055509436803577355
0.0060627341551965815
-0.011671639932194777
-0.0020397244892480537
-0.02045583068276257
-0.0009252301614831363
0.021707111013110805
0.021356686434383033
-0.034447920572924784
0.0457547369791475
0.007855434725165976
0.06161069781698846
0.07164362156335409
-0.07213633606866231
0.05704862305656455
0.5406774019985275
0.9167553789935526
0.5710088481346687
0.08280589025936687
0.028751651755450913
-0.005819533143038816
-0.06961947638918435
0.052777230106598766
0.1375361515268665
-0.02575041381778459
-0.016117927542262125
-0.13245497716335297
0.06757514517280605
0.045588266142100146
-0.08666919310274572
-0.10324427310234432
-0.09746156415826326
0.03225845626864091
0.03724957098070411
-0.04616669721843941
0.02496300156913992
0.007943856049557621
-0.01836348534271093
0.048509841334265
-0.06024678006140193
0.057376960679694756
-0.03642607770071764
0.08907683409835224
-0.05026530117407333
-0.01757860393000635
0.0029293568771176595
0.00261592739112416
0.024541425030904774
-0.06428412091233386
-0.0018656204123317498
0.0069065853201360486
-0.02638691120140634
0.020202930872970884
-0.06731849567438905
-0.01632269445253418
-0.0376592062201833
-0.016171546477450952
0.07235177299606016
0.07332278630787002
0.06352082302906102
-0.023112864004042572
0.045380913840010355
0.005618106346290199
0.002279485175150428
-0.0038680673809584594
0.08792089286895627
0.0682919302778232
0.03724482092235487
-0.008515048275531326
0.0019780379127281047
0.026528330226886717
-0.026080445592701118
0.0469157857982252
-0.04606225557214533
0.019592184399870267
-0.1144857774896315
-0.0275309263301065
0.10388385664597218
0.05180957471959555
0.0767734224967262
-0.0333653833677191
0.005188641840021806
0.06409961265471523
0.03165474673526885
0.02542829386791597
0.08152909851650314
-0.05202274828069641
-0.009211901972275153
-0.08770427813346772
-0.05475530259678007
0.053709269608948555
-0.04586746330960617
0.03677621270625486
0.08292425209840404
-0.008896908749596933
0.025993171989990634
0.03716560647714599
-0.06107475315332827
-0.030822617265052355
-0.050183060583590115
-0.026836155504151433
0.03580553490405497
-0.029759836547114577
-0.0017576613465908467
-0.05212308084656178
0.06132110822668511
-0.027255499511166854
0.07614902759549771
0.0030464546924680058
-0.07034997889815396
-0.008551337327281219
-0.053138841373308224
0.029467468868907637
-0.01306813911634332
0.008160512751367708
-0.01846765550232814
-0.02776711519316627
-0.04868110048078136
0.04181114684107647
-0.008657655089984893
-0.015734544684919204
-0.009910694922108013
-0.03394308967428873
-0.015567571338801267
0.010281490734674381
-0.05170684995283825
-0.04446759965396039
0.06891420468113368
-0.018137826639977806
-0.02757804044620049
-0.06719358027796378
0.042533881873711966
-0.052796290675542173
-0.0007646330480729051
-0.08540925346582953
0.04090864001820583
0.058842812180929044
0.024226017273900766
-0.07672400657026485
0.04193810719546154
-0.041367449982017634
-0.05854859393608062
-0.01917305228788267
-0.02016838366732447
-0.02525243255901448
0.06368371239523471
0.10059129982213133
-0.06845682686747323
-0.03444161971622952
0.007137416802247833
-0.019435824546861376
0.01996993746392581
0.04579926779728975
0.03746829711350206
0.0304866783924916
0.08295477604598617
-0.07944736414580549
0.07400543959773077
-0.020649581704487188
0.039256261033781346
-0.05148331141397218
-0.045424819594663886
0.033105864574101376
-0.09643650113749229
0.04947210391441563
0.0629981751170794
0.008889242691448007
0.007088051778927861
-0.04168180724542261
0.033722470120183416
0.0173832623203713
-0.04607526980119115
-0.0195739975044096
-0.007966771234790174
-0.019640109825959352
-0.06814557066749875
0.03495101542919477
-0.012175522795094734
0.0007682387946654706
-0.028913329369871333
0.023763573698599494
0.009934809219070168
0.060639219456520926
0.02402993564694922
-0.010134220091855543
-0.03698584087512802
0.043297634195832255
-0.01412880493932289
-0.008585878329811038
-0.008598580314633735
-0.02008038553285647
-0.0077269497114934695
0.09631037813662889
-0.05239110270638461
-0.04072521053808051
0.0692162209077125
-0.018740219224753586
-0.022531064203744754
0.051743192838671695
-0.07100978086408756
0.041072721462670284
0.0022808214660771917
0.02324010654159887
0.02230154776260629
-0.03139912932413189
0.05255918900749532
-0.027506885573903458
0.020442450949937085
0.06188622427645682
0.06894508499232348
-0.01335631679703462
0.023156763712050527
-0.01797443951018098
0.1251898113634387
0.039006300293690926
0.004202921791846784
0.01562810867288713
0.020355270772303376
0.021837177039174108
-0.011999910882327852
-0.019716364961758746
-0.0075926680863246596
0.043015414747639626
0.535913720348723
0.9599147478675514
0.44700249605076414
0.09928227667179257
-0.006506131484494336
0.012481723789449426
-0.028410268469820484
-0.019627127911548678
0.03460597525442454
0.03156086002475969
0.029476252308833908
0.001698380617574117
0.008446131166613738
0.011521944385525174
-0.03280208699044883
0.07370233000730506
0.06657940162438497
0.039712279550048364
-0.021293079320079886
0.026957205897507514
0.048918496888488594
-0.061159845086057166
0.08472558808492486
-0.08696938055778976
0.035230290985453765
0.07266411531262346
-0.005653173201351543
-0.007523219991153671
0.03338303963234617
0.0925940945966936
-0.014053381897068307
-0.03904775959329724
-0.021188772780399615
-0.07762569961431103
0.04488789493575779
-0.02570415263569298
-0.010416957703277774
0.045481056570950314
-0.018845516220492447
0.03795451976941985
-0.05190442519081434
0.0479359714161999
0.01709525106327352
-0.004428951540983411
0.006544674397189785
-0.06433806473263683
0.0054000371973484985
-0.007083489267830193
-0.06297163052187818
-0.033553771345327194
-0.006462262897625907
-0.030364609247392073
-0.12060569525252085
0.053819376980443305
-0.007104493754483271
-0.11369751046182726
0.10674814698396975
0.06206961656565945
-0.01744910255341676
-0.04212487456833505
0.0201595605380261
0.010116340744207065
0.027104496240018674
-0.04198101366275242
0.054888601048581655
-0.02367310615877747
0.034038287432778355
-0.039846963022851206
0.13240719928767433
0.03477616744826292
0.14421161382868233
0.04138009881630232
-0.028073217843434202
0.04146903967945981
0.04502889090966082
0.018666207224888126
0.03151962360160282
0.03808635647038378
-0.04968405053828708
-0.05324292023649762
-0.03971084993072168
0.006377119718525512
-0.011158558573671012
-0.048778528296147435
0.03876571052598235
0.014152241006823989
0.008446449568542706
-0.012899465258696778
-0.018911405118278653
-0.042066558090448826
0.04668701462686689
-0.03517464408265933
0.010469523334640837
0.08310051981360167
-0.016612887234467532
0.04803510703595973
0.028435450801783654
0.015573378163052676
0.021517422095237642
-0.0047453284635465155
0.001738798439672023
-0.02740569741128623
0.002072856056704444
-0.029261299789174855
0.050282754653829864
-0.08497487143392221
0.02405266455627412
0.016829335071113987
0.01230079820880168
0.05122494744327433
-0.014306179502147368
0.012771692228602492
-0.08582709440932265
-0.020765844106761158
0.04278682155876121
-0.06695808677682409
0.007987168352537245
-0.03387585359418986
-0.005549348588586748
-0.030883874438079863
-0.06235978021467153
0.01930016574799004
-0.0024798381012373066
0.030631455984359963
0.03972189539994305
0.06126293685445075
0.006674337272133242
0.06343105123016042
-0.04878872536954772
0.045447991461406566
0.02296952081639268
0.011654632625739354
0.022236611708155864
-0.0480369439167731
-0.05983734049625114
0.08549140930384992
-0.008436108909863514
-0.009149671090335031
-0.05511547371206459
-0.07408891527484185
-0.004415943940614104
-0.017079396075436397
8.671783712254595e-05
0.004357697019108742
0.12447305406303469
-0.01692899903694774
0.07899700539717235
0.08210121075224726
0.037681214263599216
-0.011756316627455585
-0.06807361680663647
0.023897193866695338
0.05094060398504721
0.08738437321414923
-0.047497897712339095
-0.012176319459263368
-0.04719322952114235
-0.03167389962184613
0.03321937671178135
-0.03396523846828679
-0.04121355886585048
0.03984979318611373
0.022536939502177347
0.017500559896758732
-0.032644367909953294
0.0646511639107351
0.0007245098659895567
0.11900950693773847
0.008058308473502218
-0.11666739209235802
-0.11889377673884345
0.03119749709227343
0.06502470761654028
-0.03919140649619248
0.10504893863885756
0.08314994684970517
0.010527338172057399
0.026972697117806577
0.04472651086942584
0.09449974486602578
0.034106798337279066
0.00939658261355745
0.03361505987933244
0.026868014072461296
0.0462205093637497
-0.07850116465397683
0.015792672497372755
0.023022025378986816
-0.0036423583526086
0.039208322210877944
0.09605838102845206
0.0069108565552220185
0.03458605403538451
0.08031323802257767
0.008078225297092775
-0.04442316011794045
0.030788942454396215
-0.1100833068399038
-0.114918351898134
0.0166506023558129
-0.11724851915409332
-0.06575838712140955
-0.019004928175516127
-0.036070817487294335
-0.007390325177355887
0.05564350703842485
0.01192404056819655
-0.04196602008897296
0.0677220536392138
-0.07144286182720955
0.011094175438604975
0.022995701249414774
0.512615895286527
0.9840686298053701
0.5541118955763183
0.1360344735597115
-0.029356966599583145
-0.03894698204081207
-0.01575483665160547
0.09377857300171699
0.08095342405540404
-0.04841340926843254
0.04001126690006741
-0.08657157144486329
-0.02236712305286826
-0.046378217643122936
0.05346397287862206
-0.06453587598942061
0.021467511771123597
3.5506078298178605e-05
-0.008772441486475513
0.0835791475372199
0.08798485961671557
-0.0072196409226485654
-0.017295815029999707
-0.07534366594015834
-0.0002129493619605003
0.09766516278729954
-0.006436766976396164
0.03643796415718899
-0.06987486619596321
-0.021738746486680085
0.023123265290132547
0.005293119902402638
0.04123336672052809
-0.030133594227933193
-0.08749942744118328
0.05610451151611352
-0.046807464463545424
0.0253302013750992
0.022542843324420768
-0.0831876597515996
0.052456270862001275
-0.02832835972644846
0.0027527310993480814
-0.017909128198277825
0.08112957511164545
0.06717451040920314
-0.09061672918853611
0.11294135609540944
-0.033915336625759816
0.1051218338490919
-0.012810478606999224
-0.017045835304596756
-0.012366386653891125
-0.020039482248974505
0.1262198268911611
-0.0038181599660317106
-0.01511482162693448
0.003850537874647204
-0.048366759846235265
0.07985602671451254
-0.07355404178465656
-0.030700430353570264
0.04683301549233961
0.0021176065383715983
0.02746075912500233
0.07665820583427152
0.05019007741662399
0.006873817257057262
0.10446713249258993
-0.031416807439811664
-0.005015482049627651
-0.0015220165751383206
-0.005121088300848986
-0.05346053284805802
-0.07918249125802491
0.020860078718959677
-0.031673689277532856
0.095390439449064
-0.0036271161617619746
-0.012574462874574519
0.05471698932013272
0.02010963187238609
-0.008775871389352442
-0.03203658738822217
0.18288509019995375
0.01808928811308693
0.05422147886921981
-0.05114727601167477
-0.02889926932118374
0.10561729441451442
0.06984654696778175
0.022881105186664162
-0.019078544589851178
-0.011701788597828798
-0.033805536762806454
-0.05784246650693207
0.046192209213050714
0.026941561139602922
0.036803940817113655
-0.01684489939811321
0.01278194875665818
-0.021602188248706723
-0.03636540313851532
0.0833531218071088
0.006075364842037145
0.02537271691432702
0.04178770069287506
0.0067020443116511995
0.012031637201257724
-0.05433125884768536
-0.04480575142182927
-0.04739073775642234
0.030272920841026764
0.0035445326411032564
-0.0448015781882794
0.029004942081760344
0.027172823047705304
-0.03474829956496824
-0.0013913772314636899
0.02735708375302385
-0.04291776770597117
0.028311338244797535
0.015051180208178078
-0.04995998527505132
0.010989836749905101
0.01828242933279522
-0.03130005630693995
-0.02736418249331046
-0.050420996546559495
-0.022449948456194704
-0.0006041005218573894
-0.027226107934716033
-0.07424439491219437
-0.034429401231831344
-0.02086460534060011
0.04084193548161259
0.029738245738846533
0.04181105394375012
-0.03695094484994841
0.007077538953967165
-0.12115232495007669
0.02144601990904943
0.030544883695039878
-0.0175812583930462
0.014771490586089078
-0.07574621376850264
-0.040053349519991205
0.038272461921613786
0.02556266392697872
-0.020592725552238383
0.040568115870235524
0.006914905839995548
-0.025211048196107973
-0.009141365530164688
-0.022770884565576778
-0.0591887975409264
0.06283429029510507
-0.028401221664629557
-0.04161803571484557
-0.07646741602566795
-0.13179839337945634
0.03507484340594935
0.0396804343518106
0.05965192922973542
-0.007451965808509111
-0.01609962636467976
-0.025386155665157062
-0.020827881491910144
0.05598951753700936
-0.0013257624364479063
0.018903539800070146
-0.022100341598020184
0.06604239531103537
-0.09523694397173697
-0.06102620873590229
0.0189855262117279
0.08753053756154679
-0.011255009987938519
-0.04211854028636718
0.050033135257917194
0.016184922100744983
0.0645106905997122
-0.0645175542372171
0.0605834243005463
-0.07742287283841359
-0.014408607307743362
0.020639137641196317
0.009300668909954695
0.05302961679911834
-0.09133300085046119
0.007050373984951838
0.05998210163919735
0.0029647113536048248
-0.057116983988335125
0.05037536974133264
-0.03241551350718479
-0.041216150603143924
-0.047506787644175354
-0.009934255647448126
0.009153011018643539
0.03654499726484603
0.4468177061635028
0.965275856206889
0.45225056760566795
0.1018379113274715
0.018061079820044033
0.011193690513329649
0.011266594437390129
0.08354958576443056
0.021184179981357756
0.039198212394462355
-0.020730787488848643
0.04720030713307456
-0.023117626189666098
0.02057241637942952
-0.06856834340911913
0.008311706599406086
-0.04876901175846688
0.04680178272419538
0.043793823099939226
-0.023331369377954644
0.102478746431227
-0.014293914809673748
-0.08060094503362636
-0.038955898518134004
-0.05220705111789255
0.01898010508931273
-0.06176815133362262
-0.026960700790312264
0.015727608526838494
0.006932294735590133
-0.0006321906170889747
0.0063000259522033655
-0.018525004875382722
-0.08018760278331653
-0.019841911037232252
0.023437489215764277
-0.006846749430470218
0.019574418656525042
-0.02933915147547427
0.04971680399389644
-0.1278158933735667
0.00707202564616773
0.06744401735606392
0.07488492580207315
-0.011591308462123766
-0.06630990778214421
0.06832364211716795
-0.0025932583402780325
-0.007948476963494034
-0.04464273204388654
-0.06249437404291287
0.028193158446217715
0.033493572737933026
0.010077200089971079
-0.038202289079692156
-0.05324994125545749
-0.07161243276099465
-0.02802725880389866
-0.0502926782374482
-0.08546548476455228
0.032567250617652414
-0.06595319307424836
0.049196134071536696
0.01970358550567318
0.014717059380919953
0.08326545230300458
-0.06429013170322624
0.043688599802439804
-0.014882128651071483
0.128553507831477
-0.019039721556960473
-0.02711541680628092
0.021276788742863317
-0.01044542661043198
-0.03792314811499346
-0.04851383919679187
0.07291022441937016
-0.05817308159499959
0.011154378019024993
0.05280920698130476
0.05522474927213166
-0.030082620109071995
-0.010309240031288134
-0.02000967505071864
-0.07675093813329376
0.026875869151005757
0.0019251822817404408
0.07202925403009396
-0.04116025486507115
0.05443482793088479
0.05796170751421024
0.002353584340394369
-0.10854307854168346
-0.025628382872214514
0.08929355621520585
0.014852788574595478
0.034669985293594295
-0.004458329081748417
-0.011172145493156423
-0.09336722843497532
0.039736960852765346
0.053984060236118826
-0.047543114273334415
-0.008942756075415371
-0.015687063867714537
0.02100766469931431
-0.02721817907545475
0.046567046159150124
0.0035662158062244446
-0.1274711527792349
0.022136013759632162
0.04981754937953922
-0.05760308301324694
0.020436346748728716
0.0914979834877105
0.005603318758911938
0.05708144321647447
-0.022107748511826012
-0.0008982144228578088
-0.010231064396317276
-0.01935602131737783
-0.007386102254153812
-0.08153408904621588
-0.016544006719164825
0.06689032277133926
-0.04818450284259167
-0.05330666357366553
0.0030606185697377476
0.005559157167862224
0.01887323595269931
-0.005686928659231944
0.0035932082229166774
-0.01754423868144996
-0.06378980776499821
-0.0035695934155325426
0.0362298498221232
0.025752731317616708
-0.08721210634696437
0.012596268165454139
-0.04463847629285846
0.0696082002610691
0.016313489146419013
0.04481419800653034
0.0010584072207429876
-0.0033027499448738634
0.07479224588266235
0.048638719831250815
0.005892932612377388
-0.009983321306869906
-0.0853587362765435
0.016228376743706998
-0.006305198465985734
0.027697802354113805
0.042890942076739325
0.061646054752362345
0.016849645544720213
-0.052318023256410266
-0.10746567754590666
-0.04123499301783958
0.06667442497525339
0.09117457346497204
-0.011895037588458774
-0.07304796271411756
-0.032420678750142
0.05689029113489355
-0.029550658676355337
0.02945619738337571
0.008427915064901764
0.0355001629518527
0.0909005499473519
0.029489073776716918
0.007345813831896474
0.09641867829044597
0.017477605081253064
-0.039647374866580036
0.034373264488474276
0.022372777106648534
-0.01539511711352999
-0.02587930262331367
-0.014912974365745396
-0.026594467875087836
-0.013287990935644589
-0.042139830112093074
0.019307734407990787
0.015560065697940965
0.01726008886147346
-0.0031184669718327014
-0.008883162801253104
0.07210028988267576
0.00337029434189014
0.06318834230277384
-0.04982079915831568
0.029458891710068935
-0.03673515183300079
-0.02780759641466672
-0.020595291996377576
-0.02372994843018892
-0.023480232824092537
0.060863754494528244
0.0022705586558819948
0.011252769460480457
-0.022857998177572482
0.042846965185905445
0.01775281391194598
-0.015446432217486913
-0.07921419463133217
0.010814822920093533
0.028783976126772914
-0.048942391916167324
-0.014769730934958118
0.026858025073047805
-0.07854640285608838
-0.032442609170494484
0.01884544708132007
0.0552509219425805
0.20928899061355838
0.5979327384183546
1.0071884741158004
0.47578865592590236
0.1461561133885443
-0.027179646186182866
-0.038104764247282576
-0.015263302618255023
-0.021533665008855344
0.020631531153293782
-0.030120081106718058
0.004256102864890743
0.07974767257026602
0.006107035703702388
0.0758371144060889
0.06010283005329745
0.02960201183503164
-0.017707639496926022
0.05202539886745521
-0.012498745931903692
-0.00010048275134805477
0.0165099337082797
-0.0002683736196740834
-0.03601338592052685
-0.07635494574914348
0.047956646516273946
0.028517106340318035
-0.0860305496248171
-0.03733936747684284
0.008953271463669225
0.0221286176780284
-0.07592268294835458
-0.004461933327121083
0.026982729762698218
-0.017575590094964014
0.012791482421719683
-0.024377594102223843
0.045459817584976095
-0.03996428569331356
-0.057103911954719005
0.0014463432030775345
-0.07167629861442479
-0.10525555940313952
0.05418676490270068
-0.04921122407804094
-0.06668257912919064
-0.04058793884748041
-0.04283253157053977
-0.0071055730581772
-0.054674336684298344
0.024909307112807758
0.03231170655788576
-0.06374957253077677
-0.030904831147419383
-0.026152862001929303
-0.008250368068317093
0.05413417584918409
0.057015670750130414
0.12494336930828934
-0.11346869645770892
-0.04621478615758145
0.09070045905374918
-0.09003501588884175
0.08956325320853532
0.007367563657162234
0.00920663865112722
-0.06398989930597353
-0.022558161000214835
0.08736881798549531
-0.0023841567620613378
-0.022224951410510254
0.0202859598189618
-0.009610880015132857
0.01725755749032205
-0.04248706660799607
-0.003857632430405264
-0.03205381327203593
-0.09019833203473387
0.02409788936238426
-0.06168864207777778
-0.008237046505205103
0.04630341229139555
-0.0748906728270215
0.030234204847480097
-0.01499067284843313
-0.0483261700463532
0.10114616444430342
-2.7814787741762054e-05
-0.028404644478837057
-0.03901064611832009
0.04405812342183482
-0.030602811323170578
0.03782590492705129
-0.00012399155615803336
0.05580940322169242
-0.0521269723741442
-0.04515316195480023
-0.01405026570150343
-0.009903324876238797
-0.01772785143485053
0.1315720202713259
0.1031623502175954
0.014952753741052162
0.02084860370252288
-0.011821609003979047
-0.05249127667590654
-0.009103612027762607
0.03855588757310269
0.06528133807840046
0.04978542102613528
-0.07548871465771058
-0.01446138390768566
-0.07344337824329962
0.05844217787013594
-0.02061921974001663
-0.002355505781551653
0.02400251340025009
0.13830699599059496
0.01341374698947631
-0.011913551890312589
-0.062052106060182
0.07293197242515527
-0.009081823214853768
0.08285712324638499
0.05528065564743617
-0.023147805130423586
-0.06961380904279522
0.01362845586018034
-0.03074517643858009
0.001967292122815285
0.05245248034271688
-0.08267910578124169
0.013230692203410693
0.03797980954428684
0.04040552808780316
-0.06817710855937115
0.02096682348869819
0.06017682909533463
0.017161689920003786
-0.005784710305426838
0.0569806470286722
-0.034715940521941505
-0.07649164541016351
-0.010029890746546578
0.02675225958519993
0.05194683807182168
0.026525128708396614
0.0417910534362429
0.052265571505197984
-0.01696885031490553
-0.0073969650953794935
0.06435838965749378
-0.060507851211534375
0.02145664307611475
-0.03583544144585107
0.05501308016154848
-0.0008967740287569849
0.0003796967689061949
0.08644399436983431
-0.053802138972432315
0.010790973660930153
-0.009006306554891048
0.02662056580215156
0.09646653933444732
-0.030262075496259123
-0.05986988561770226
-0.040466371284100314
-0.011640904111045946
0.0032115416851663465
0.005726439789329116
0.09013304755877169
0.08124195223274208
0.06514732445334802
0.1257219318308671
0.04120492283313157
0.055417754175631995
0.04023852609468831
0.032045265689689344
0.019719826209142085
-0.019842852245766027
-0.062338912391893236
-0.00653269844810566
0.02828868498360317
0.003613095048699504
-0.0532667847059628
-0.008294152499168914
-0.010900140429156898
-0.0031177320984390046
0.024545767446332963
0.03531290184551512
-0.025002572548727627
0.14905605940062572
0.5565819059834156
1.0160150966524273
0.5332375135976534
0.14921157212309744
-0.05488223247897357
0.0527365667490898
-0.03950304362989766
-0.03463508183141893
0.009814458390738051
-0.10720200628373347
0.008781015411288017
0.04908904734779013
-0.08229619232230084
0.05445046622732256
-0.03493938092637275
0.01034308902464004
-0.0276787253502731
0.028645924206452296
0.05124737780818818
0.03235051821912488
-0.0001990574746850043
-0.02379276682967126
-0.0034651014685556543
0.03279857324798209
0.03451331995864594
0.02754132910880612
-0.06412887707785223
-0.001151122921770501
-0.03167144820985759
0.03324645099529139
-0.038248587668929836
0.022602687904211244
-0.014109388040726487
-0.09395480916328708
0.04654796429439988
-0.0012643610931978874
0.06379886478828459
-0.08326545393388186
-0.014576065545874798
-0.010820221047993238
0.013510314561915577
-0.06625936520784996
0.027201892838688947
0.09558312031405167
0.02372686732327659
0.0046436200911756055
-0.06887287035126868
-0.03871230567785126
-0.002792245041138643
-0.026488823542141462
0.051312821313549244
0.02668516004843189
0.1346189293823485
-0.04904292182121457
0.0016557305695866404
-0.06917461862671456
-0.11112203872951623
0.03613604897265764
0.024830769148367814
-0.0427295217322895
0.004651480979671178
-0.03146337994627723
-0.024710372742163804
-0.016014230638313705
-0.0448282588702139
-0.03583249549099784
-0.0344217721972127
0.021143942337666536
-0.13871100879924073
-0.011381463074240136
-0.05438409382688367
-0.052577634311264033
-0.026282668704186253
-0.0007169854986578969
-0.010720593085334669
-0.05320302548991022
0.036084825922278845
-0.045130199343024535
-0.036735312796305895
0.01422458929472584
0.016018428214637084
-0.03058498305664893
-0.14680810150495782
-0.044274544329392415
0.008094409312012819
0.03443040268450151
-0.003964832876422333
-0.023949302353780774
0.1146605502849662
-0.018624306075267723
0.03061163433955529
-0.0667526047713448
-0.054508392460448356
0.032366280573111236
0.052228063789268545
-0.019485844509670208
-0.09243178458152604
-0.008377866970061276
0.00947029503897808
0.00494090194644122
-0.02816948324805026
-0.007644205963046913
-0.037488842214205294
-0.05559191118684301
0.03778342603234025
0.004889915670135532
-0.00753417793111649
-0.025357387138608068
-0.009008677826753993
0.008015821439349823
0.08643407879071534
0.032726842491357204
-0.03331545609745431
-0.03278818713528455
-0.04058405501622978
-0.01002602656264872
-0.040622572512044236
0.023741187249481283
-0.13217581278990265
0.02675841546373721
0.01376887439027153
0.06313712415738197
0.043839477727697654
-0.034184889262702675
0.03821490404692536
-0.008403373860715036
-0.09671533787221351
0.007941596986444593
-0.031212671028534745
1.1075819849995122e-05
0.08257249151376218
0.011239345136607922
-0.050866742559499814
0.04822075028081019
0.018127128506821927
-0.05675809145159542
-0.0803118883737328
-0.048866877960936035
0.041815090033586105
-0.015080106682152303
0.004057125947770541
-0.06692648353880844
0.04316094895087117
-0.10075918321788686
-0.032768875803384244
0.02092319295568969
-0.05613157225196727
0.03070646397252215
-0.043459698927580115
-0.06130352964081535
0.06432410323222373
0.007696509654950251
0.02595180390248132
0.05091047922763484
-0.1309649474750465
0.03173913199851596
-0.03805125922471736
-0.03146363953869571
0.021872053883279327
-0.018152038670472638
0.029726053772826017
-0.002042148375804091
0.00841045073420285
-0.02451107960076447
-0.05324666445790691
-0.03701587853737525
-0.005141206523997222
0.09186191963872695
0.07359531995567711
-0.032664798892969735
0.0030128838666237624
-0.014386148697302384
0.006513330943451208
0.0129456373771388
0.026375750787780056
-0.14505693909087045
0.018324933294347003
-0.01994605146083235
-0.03524689571158019
0.03971283390810351
0.07334122082023843
0.034450157202070356
-0.02592758036055473
-0.05380028250694553
-0.15031222140548403
0.009125799829067789
0.028950805389721824
-0.005093175504901514
0.04668731044189961
-0.06600951179162462
-0.008561947822752434
-0.012515047979394504
-0.005505434212803312
0.05839658314769537
-0.005242111204938132
-0.014739622538626474
-0.04683467399052657
0.06642897357107298
-0.07155981112893137
-0.027649971642370624
0.08469685335487466
0.023412164903576727
-0.0010088325850635077
0.0010846027763142094
-0.04731889936789089
-0.003426362242876235
-0.017493291949789658
0.0089814299727502
-0.07531206928131544
0.11989260038846597
0.5508314837443155
0.9898088437439714
0.5323549196652904
0.11551731374222887
-0.030387007008302797
-0.052926284322855746
-0.04591942443603294
0.014644628457735754
-0.002807256599260224
0.06375465109408489
0.03954350561019471
0.03943924915636507
0.01315404008561112
-0.048109947466083235
0.016266964798749586
0.0031926582514111342
-0.0569190694277874
0.06049746292793559
0.05511446874645759
-0.05720745722085302
-0.03188974525582643
-0.027497510972023832
0.03049257718998076
0.02473625902269982
0.0022203606393178255
0.013692864019956258
-0.06438160982227668
0.019068064067922635
-0.005044268777303525
-0.033952159127929475
-0.07662531369651596
0.0013480578093175986
0.017847994810890496
-0.08512409008532938
0.0009243035328214914
0.006111987592424777
-0.027711477157383032
0.018991910119758714
-0.006633120813865987
0.014158550266818188
0.026712346643752796
0.026740345307526177
0.0508410246723251
0.016916259439229003
-0.023852037038841038
-0.03238950223765985
-0.053165437643431124
0.007558982155645303
0.06606558573262616
-0.017922630299357513
0.02248041238549799
-0.03761400022575803
0.00974024575803172
0.062967356403722
0.034312398666597126
-0.07854060165695785
0.028534740801777227
0.030811288939677602
0.00867434866135444
0.03337610563511706
-0.041675101985876914
0.0031631577402043026
0.05550869704690509
0.05099747417331838
0.027402248700298556
-0.044149761175044155
-0.05202318853096393
0.005727183722167711
0.009038711936292021
-0.005018588613862832
-0.04023924890983264
0.021848053769519687
0.005508267434727071
0.014491215827523675
0.029671687981205508
-0.013682489383900634
-0.02443791886897183
0.05537826616543116
-0.03786792432650841
-0.023458709973100386
0.061712390771373665
-0.027351212550483006
-0.004930882182027994
-0.02059849345565141
-0.08916107406418988
-0.006165382600239838
-0.0505310881789274
0.012729021632178046
0.0552819255020556
-0.11070868665868275
-0.02034584920001401
0.022616161648249058
-0.10916744592148889
0.06681326802111158
0.018994601840174177
0.05416064109659507
-0.02819739315557146
-0.02216603851380955
-0.008046817739953475
0.106910452377577
0.06590526802485333
0.006617384975437346
0.012720088582539197
0.03174519057924665
0.11957774104957296
0.019135989652852542
0.002297969805938499
-0.01692991983074939
0.011745762375972054
-0.029351090917560458
0.024804616903843647
-0.07162983148957706
-0.013025029470316633
0.036731642736366824
0.0184561827168677
-0.023131231002582586
-0.011601225520831919
0.05176673433461057
-0.06052008480117106
-0.06022968239556651
-0.046481697608874856
-0.0005338932133321781
-0.0678369033628096
0.04765007963829907
-0.04621462294279327
0.011217777887156468
-0.028953655045970153
-0.0032748540419863014
-0.08016729548293718
0.05006581226049781
-0.04807489991857005
-0.05331083605218513
0.11895045067010464
0.027715365547880396
0.048120820414153755
0.022944569818094944
-0.022624027999320086
-0.06534249287275053
-0.014941019371282938
-0.04890796722627812
-0.04590575862172595
-0.07915936644848484
0.005723797989774806
0.0786706073762923
0.027906836151322445
-0.00528951939258562
-0.002028593640507583
-0.15238886561967985
-0.021191771094968823
-0.07133379476101696
0.006720626395113823
-0.012998799433411713
-0.04346522706037702
0.0055948352244299514
0.005163957650347148
0.07593120197282138
0.03432087502233649
0.010848639501843636
-0.04737572368256962
-0.05367195595537442
0.029942400371830376
-0.010003468622021497
0.012468279556330378
0.04890002620857799
-0.07565693875709051
0.06985176925144969
0.04846908934744981
-0.10272201109938224
0.11765462244554886
0.01606881595407282
-0.023926915021147688
0.02595311118024628
-0.048873731846936795
0.02730641765967756
-0.03967482291676557
0.10101797677353004
0.00300500969532005
0.032491152603641195
-0.03930325498260695
0.040824801194667915
-0.0006290031751056042
-0.07059258541609724
-0.011938135994412397
0.09655555344312688
0.0429488513021654
-0.01894875344532468
-0.09345828805004674
-0.04162455891153158
-0.07032370020172307
-0.09225040032167492
0.039279556508265125
0.0031193698190082816
0.08975542241719704
-0.04988209493988145
-0.00011404673795651369
-0.06970871758734572
-0.029743668058312123
-0.011105498096629291
-0.018732698390582385
0.002677031530775057
0.04858047816256936
0.04332087927272771
-0.03846672920456497
-0.0015177060931824595
0.039704818747972194
0.051786825371475304
-0.03305783423270763
0.035408222740011985
0.016557325459385052
-0.05329945567694645
0.040007898129286755
0.007577160421623447
-0.0870695303163263
-0.014692678035568469
0.0019928770792486264
-0.030291223940879686
0.06141142127492625
0.06322342453390527
-0.019124507945642247
-0.024611276067687114
-0.0065617336684660535
0.08999597170966597
0.4703749053099039
0.8145601695338354
0.5877405937799807
0.10002089818890712
-0.008915505596453823
0.016258456502597534
-0.004002887426704497
-0.021515792232272474
-0.05028229931959747
-0.0919306388247848
-0.06771894649771969
-0.055833703335507356
0.03254610790204845
0.03623115733821973
-0.044089955223338556
-0.13318270702186974
0.0004560359750938152
-0.021077110782965924
-0.022313124335006568
0.04779687378821824
0.006932631273642619
-0.048818982426003965
-0.060320651697952476
-0.013130567849247815
-0.0453206381094821
-0.003619881201380866
0.0513071022200983
-0.06898912057997252
0.004388971740448433
0.04575249913346949
-0.004309366790905446
0.03607904475588266
-0.014363624605773112
0.008541403971181845
0.022039246617108824
-0.028600121913156737
0.09953380085949998
0.028879009016596086
0.06514927493584605
0.0535511973180384
0.016364463464170566
0.06928947111799037
0.009395735559595868
-0.03648876415871815
0.0007409615781481608
-0.05030834562075657
-0.10508521640549012
-0.04262711215295127
0.0036440766485437356
0.05309623927440406
-0.04277596022881772
0.050508122676357736
-0.060534149290343855
-0.04597612330697251
0.07245783016982259
0.002381050998124782
-0.008681097264232168
0.011763999495391343
-0.06032016253590229
-0.01654240642869112
0.00013305790632757916
0.06156904680897162
-0.08352085696507006
0.08814951576878854
-0.006232386916252154
-0.05552781244835046
-0.06458173580671957
0.01365746585021031
-0.06736047400342629
-0.028006177254654943
-0.012495153043889914
0.05718378697024129
0.05092267296319868
-0.03214961950594796
-0.010634158511046099
-0.07976924500878729
-0.10195477566218601
-0.061452622379630985
0.056154868066290525
0.039004036111073004
0.0191718131298307
-0.07288122433102885
-0.035582978869557275
-0.04289105140893108
-0.008299918531028119
-0.011452677831605793
-0.050097842834791434
0.017460840394927173
0.011447319010211947
-0.03644115495464733
0.015213919581626562
0.05621426841652604
0.0714030388561623
0.02453310783049295
0.0230633971704678
-0.01200694570121557
0.05148564477675796
-0.05351757256698936
0.04569250717040824
-0.01438023670904014
0.07454684136008648
0.02941032035200372
-0.0033933115536550168
-0.011824382445213673
0.02628064272242185
0.023856217384302766
-0.019917150225026388
0.004591787913417324
0.044819504367430096
-0.0681678128940125
0.036293911027685664
0.026060728917967693
0.059332373778074536
-0.03578268506516189
0.00028580430464454827
0.01025341880024478
0.036939825860011766
0.021455846458050012
-0.06197775494061373
0.014552201643082303
0.10021143871352041
0.030587878798065755
0.08190234722683
0.052153068864740616
0.06812009677192046
0.015498433049235255
0.02609225548060585
0.012775887832068742
0.00021704325247613938
0.03710974900345523
-0.02605009695036005
0.09426911580073166
-0.046400648384413684
0.040569405995857934
0.06893357086517944
-0.008831087698020157
-0.05564886555690819
0.057776479464117736
0.010169765502512756
0.04066580363008716
-0.005472729941865871
0.08659623411611986
-0.10585040261031742
0.01880887756418673
0.06708747418757989
0.005266952241469809
0.015117934650845575
-0.02170059062835042
0.0010344253933308736
-0.08359283065681526
-0.03592156663098458
-0.039337756355111414
0.03345619955146491
-0.028568487964386727
-0.02712377749699101
-0.01889616801425699
-0.03743223512576587
0.01345111346308487
0.018881573471645468
0.04125092898608797
0.03263750411439713
0.027637887249235035
-0.016448416699872178
-0.019655187516893945
-0.04356055011742282
-0.044462184444705066
0.009713070483963027
-0.035970802039004046
0.07341620666779795
-0.0018750411537246548
0.07506950535797702
0.028588352728558364
-0.03886182172358558
-0.0031023094290908884
-0.08367261705588581
0.009521267753264253
-0.034288420392265866
-0.05567290041076306
0.07610733792740237
0.05152938704921437
0.05015194893812313
0.039105563832547215
-0.06174445220628915
-0.02002397464034188
-0.01697518207349435
-0.08548685370494657
-0.027850054742199468
-0.027304898780852183
0.0062999473747481025
0.12661938001191717
-0.0010448138302369375
0.006325722728483366
-0.0125105136382071
0.03688564400268723
-0.053695860432288856
0.19480187475769695
0.493792039626659
0.9802405083484468
0.54850185368319
0.05545387039775732
0.03596254915276667
0.07025850277976804
-0.012067138620150462
0.10264208065399356
0.0322145763130627
0.032834712983221465
0.06829326675929949
0.08153674773181868
0.013091949320319008
0.03984527206884689
0.0698170746580464
-0.058090553818071856
-0.08647511998163239
-0.0028776960202952454
-0.087674567870969
-0.015699754815397617
0.015718676709956872
-0.013781938302756331
-0.0070796524051845435
-0.05008332568104626
0.03940717719854721
-0.05317316835611699
-0.10514508655275168
-0.010366938626660998
0.0457509962459978
0.003991539594148826
-0.05823985075401175
0.005097548370316806
0.021915185238417494
0.004515834575946312
-0.013229212344429316
0.024301934082137426
-0.08692134514100727
-0.044697769538129026
-0.06526040489026551
0.06741931859940783
0.035601586049419376
0.00925625171570088
-0.07253108266764041
0.03720738944740595
0.06932700674959082
0.028574736823178112
-0.0017588708251778586
0.03158590159253077
0.013645805712634447
0.04630381168198694
0.045184282089647664
-0.01105327683051633
-0.0330320691442055
-0.019991147034308886
0.02679251675024671
-0.016971982589890414
-0.03752648090769119
-4.7668562660331994e-05
0.055372846533447574
0.0067554033567031775
-0.01381089980002137
0.01602158964733825
0.004201960452493385
-0.09668185205048391
0.034837957150957936
0.020372921997355464
0.0008085899472872962
0.053117835036146026
0.0606499682125099
0.039938433073677566
-0.04251504080177671
-0.040785555531347994
0.05586677700009918
-0.09386119634725999
-0.007442375758105687
0.021991290351554123
-0.08752038677237522
0.01171716194251496
0.04772145382929762
-0.07427880350517378
0.08290851033470792
-0.050491503804945506
0.0287368123238515
-0.004179821417931646
0.0034757811850225674
-0.06417475678370783
0.06302364811765296
0.016294173167511677
0.0810420088451578
-0.06287086102895134
-0.009061731693934698
0.010476461985110362
0.0030191573647462364
0.03333926723362102
-0.009695927096193789
0.1061013023150343
0.00199211610940898
-0.14420772178811672
0.004210050416968601
0.06307319924330916
-0.0461653050925267
-0.04933775945856182
-0.04201948531697951
-0.05382384049885646
-0.023970085685299704
0.045464861317461025
0.07631663642063469
-0.12121251619686002
-0.01892273267887287
0.015134899718836635
0.010133918169259537
0.09499698333114447
-0.10053469547910338
-0.12945319673442499
0.1031106262019128
0.037671684662366825
-0.028568579347645506
0.008579938653397746
0.01216088112805332
-0.02977603951679897
0.007088918534571701
0.01774066873300598
0.10077651306814127
0.04817256111427706
0.08696615701210375
-0.06717857418364472
-0.017359862980892888
0.012112349196581268
-0.09605503765664815
0.05909296690546402
0.032110488615563114
-0.0183579259976932
-0.00916671717503925
0.06269334444118739
-0.039771897381848276
0.06470926748311437
-0.012601936829314398
0.03779980263884583
0.004338210278949363
0.11165969233255929
-0.044369619505376295
-0.028664131128846693
-0.07530627388444155
-0.054837858351466054
0.035656405384725816
0.08000818194325306
0.04132404351801383
-0.0002695749863433178
-0.044680725082802686
0.044920933581357514
-0.047430095259291885
-0.06744758671528797
-0.015423466660495232
-0.10169703084442482
-0.06906924372761244
0.09429951679414103
-0.07834042122292012
-0.05940741905229057
0.0035916453853332172
0.006195194001500757
-0.011731214868942704
-0.10016868744455576
0.04242446638188949
-0.02215266998789983
0.06102247610874506
-0.032240881076442365
0.049124716957028844
0.06480417245397176
-0.023347113787691012
0.04402250970528235
-0.06642723390581987
0.013184474353474685
0.06111138541774197
0.025924642298206187
0.12031119614266197
0.028717899614557785
-0.01826356263037505
0.14204431965007489
0.08168505086737753
-0.08014537808991984
-0.03920818024641573
-0.05190790535206618
0.03228148022545279
0.02855790184083943
0.028172596619774955
-0.08149547297494754
-0.03190457733025247
-0.0074642627361822134
-0.09109602746603611
-0.04359138832789454
0.06782168550828661
-0.07770379989847942
0.07276302468592404
0.054557454626775116
-0.014536860990224049
-0.03244364996838424
0.04159138110726502
-0.03938700804478154
-0.0368998974973062
-0.0011934202002364253
-0.1065116797893459
-0.07249877992008531
-0.015783062450074152
0.023784801610629968
-0.04007869690393393
-0.009880523901084126
-0.08067297040688161
0.046624192613516025
0.011004116478049083
0.11542729513196086
0.5244125308992448
1.0039063751747392
0.47581136207130004
0.15648272743601543
0.00784405738803865
-0.008285971433671227
-0.00043273269602519903
-0.0014982533244370056
-0.008788280196265605
0.02230531812539538
-0.046793011106118436
-0.04313955178701541
0.02796318447143178
-0.007261967036389812
0.0485696551071548
0.020443950031593185
-0.027631395503811607
0.028754818156433732
0.0598595478979468
0.022348977806062695
0.033279247153339825
-0.008588542530170155
0.04965199414402514
-0.02903452074648219
0.016927151287025828
0.12847530762179665
0.026944052801282994
-0.021035561529593422
-0.021164612084569982
-0.003567084864517224
0.04256228908647054
0.007288875458369106
-0.03242639066191984
-0.032514849639434504
0.007602466551149015
0.002119749336939541
0.02274880845595105
0.045874494789244734
0.13636798512047496
-0.07310167583838002
0.03434310636432206
0.0049153854194145105
-0.09222881155552942
0.062476536182586376
0.021058661329097377
0.03999031464100783
-0.08497094725488413
-0.011020846374910428
-0.0539598472447148
0.1081550471340306
0.05722751728721907
-0.0340483891642731
-0.07683194504748012
0.009702753319187747
0.05462110011471799
-0.08675268027179647
-0.04658873354965848
-0.05527923545069794
0.04334730829552936
-0.018491454427225624
-0.01639682611887527
0.008732734031948382
-0.04391404061645071
-0.07218433683637825
0.06848425811801426
0.0731242854239797
0.00897912297315893
0.01260777528338099
0.0630506988290004
0.007832677830187002
-0.020953895297182282
0.001966956338873151
0.06965843185837363
0.0026660834214402916
-0.03346912673267763
0.007350102464254877
0.032811156876788206
0.026812674745284933
0.027641197403580477
-0.04133388395667151
0.03850517832792284
0.0014232969606144561
-0.03558955837347275
0.03810758568260167
-0.022681942445838196
-0.07871486742777767
-0.050030119055516103
-0.009081846652354144
0.028915114105563952
-0.04320349760440456
-0.012033123021876736
-0.06083036158315291
0.04910164581199056
0.08586655569777758
0.08046412622441604
0.048248977524306895
0.04312549785601308
-0.10359397622016014
0.008858661611005262
-0.024804631182995408
0.04402331805224505
-0.12687989378406644
0.009648385138508913
-0.010722189191620128
0.055921496646570215
0.07739935268373693
-0.04644230085063841
-0.04418552179484076
0.011524831060585685
0.08668813457607709
0.003007233864150804
-0.06395807076771652
-0.030293422308164644
0.010133208223173082
0.012010121428197816
-0.03520438177961867
-0.031289534688981095
-0.04907839972781992
0.057058559192689776
-0.041738758964669484
-0.023239710195914195
-0.02466264582619762
-0.08029786237576958
-0.043170765240890786
0.061406879964326914
-0.060464392089536405
-0.04818211509131838
-0.06662728868896296
-0.004530578011563042
0.09427383606331452
-0.006634711076353581
0.0033381062677194854
-0.039772361793349434
-0.0030809022396136206
0.06145251531738079
0.00714546938190868
0.10658850410310819
0.06297398561528456
-0.004315817272246654
-0.005289393779605762
0.08154615688118157
0.00686627879276145
0.07044607801358614
0.10014536700633335
-0.010210968391205465
0.017597768296750783
0.04900020922831897
0.03837500195112599
0.038024536646025064
-0.06667369135888675
-0.04242083640808996
-0.02476335104705938
0.0607210401734338
-0.0617687453563443
0.07616133535894197
0.03899170570393415
0.057711511236138706
-0.046476653862249945
0.0036151181345065115
0.014947139306565813
0.012748350101134679
0.014782870042335874
-0.01382632401975558
0.006760354053182972
0.05167819775325935
-0.05832561542204451
0.07735250594527017
0.04909494781842238
-0.04826009463416667
0.01919180217276608
0.04507493880790223
-0.061764666194284196
0.002098921668830045
-0.003925765041750309
-0.03227902712534473
0.004617841838200659
-0.030014328798139513
0.06871535344853685
-0.03133221606637051
0.039598947000657914
-0.08276931938100823
-0.008090490192498063
0.0006155578675679426
-0.009714552530776532
-0.01981591485976955
-0.03337575126725612
0.03772703900074515
0.049972892754769
-0.0041080442928325125
-0.05483187540108199
0.0896974665693414
-0.04398987164539404
-0.07297111292415737
-0.1006310958259885
0.004972594845633023
-0.01087081927576182
0.05154783245731697
0.030554228172277362
0.014510061229251893
-0.01356835977313748
0.055498863609883334
0.09336949508762664
0.05044895995649519
-0.0231765815424605
0.03907827769410876
0.07989551372663925
0.4447466342070013
0.9550480468939028
0.4820910797931127
0.1051979839481772
0.10302905762877296
-0.04408447378059338
0.06617442448456641
-0.015862977584628454
-0.10081924937226719
-0.025286300146516894
0.058834849658384536
0.017233475966461794
0.02022255993319784
0.06642520044221902
-0.05181681444678639
-0.05258752150461252
-0.1131864304648212
0.043854103562139236
0.028124211681480157
0.0361983259795557
-0.05915056120283903
-0.08021244779599264
-0.06598091542166663
-0.046128613617935216
0.07769794544564272
0.05000633618912509
-0.022911032031016014
0.014962599662999246
-0.03391811230738694
0.01821398803908285
-0.05690478688709991
0.03751257229869656
-0.042485164879219654
0.04029575142715785
-0.0213711454097171
-0.039503797679913695
0.08064983586248281
0.008847309244688278
-0.016109068552427868
0.037908915417563215
-0.06699955347874426
0.055343179463017936
-0.00697223532042247
0.030039385783421874
-0.07739367305115431
-0.019121297906649782
0.00022900696727420246
0.051514960680926425
0.03402055319687413
-0.019623851880870843
0.015897387866169073
0.06282845508634909
-0.009999424171128007
-0.015443248021765374
-0.09448523213764563
-0.013953616767140506
-0.08698135193422608
-0.005716733951660358
0.049406757162137355
-0.10598197375234078
0.06171044123103952
-0.016511156332809928
-0.001358243356330292
-0.025120989006927087
-0.08566184412743298
-0.03914945871481202
0.10487050342247424
-0.05480227481267258
-0.07942711808627752
0.007064551370355145
-0.004288825758615822
-0.016166489539782388
0.0007223971676128074
0.03221013053480784
-0.029358179989265706
0.009720510414130835
0.051193733106500196
-0.04976443333773975
-0.11610906719693147
0.0335404246047958
0.12514812878014867
-0.00036773268244077415
0.010096610053297813
-0.014790421654699529
0.07940304207551296
-0.003887846647243333
-0.00932820800074676
0.04554319071346016
-0.02421364810984109
-0.06423468505379272
0.0441150189772847
-0.029577360383607282
-0.04877300138380065
0.10500240792865934
-0.008929840161135603
0.024711304114866647
0.001476412050388826
-0.04431597451851643
0.03447168100109613
0.01572894918933622
-0.03296899158199662
0.021659516892816928
-0.025715504706500105
-0.05522476800542651
-0.06028336271760616
0.013502931048148939
-0.01913654649642222
0.07508520095219808
-0.002147905666897842
-0.0392601646726791
0.007890881932195599
-0.06471336607873032
-0.004206562026235125
0.015958338823913776
0.009783615381765273
0.06513999652598793
0.12987585629222254
0.033569868567064245
0.05893981638927598
0.127173132982862
-0.0503112923908238
0.006531370438750421
-0.02389982660433293
0.04213288551305361
0.013580945973831044
-0.0409216159951967
0.0005473908173522221
0.05234613698279426
-0.06518623155125332
-0.039867227781948955
-0.04736375425209044
0.01631982777434551
0.06202580398074801
-0.10048672326530057
0.004719928173929171
-0.046211035863759214
0.050270138741499215
-0.011848413778562696
0.0065336969538698835
-6.684976010300423e-05
0.056210940159492254
0.10243157653988913
-0.05673326649407206
-0.0476278058997326
0.01607489512773535
-0.04082011741509594
0.04667918852001371
0.05470587295421686
-0.027328815612322907
-0.038176863332073756
-0.013738951082635956
0.005200910698150922
0.015741859494759584
-0.1126408529524585
-0.04837277594250593
-0.020204967443529204
-0.039849466587344354
-0.14323549461764767
-0.09441862326773469
-0.06526792627921835
-0.005764210042660942
-0.02181010967406548
-0.03157845412642873
0.03982574803964203
0.03980668324618809
0.007495932674093691
0.006006014135932922
-0.04283302754667058
-0.0368496165328264
-0.08538246915626091
-0.01253757158891655
0.03928706448555984
0.067716494838728
-0.012238992895273165
0.024583441600484535
-0.14279946214305983
-0.021646416019921205
-0.02281811900666318
0.07455841571126916
0.019646673046070904
0.024712771144030365
0.02211641554994964
0.0022721366166110657
0.07661826654245649
-0.11526397739825366
0.007310520435770899
0.05649014258197818
-0.09456967265963243
0.04189589268861511
-0.03805816206326584
0.005490796442102059
-0.03901796904727134
0.04795758382745111
-0.014418094061178314
0.04228984281786059
0.021766491813217062
-0.039689624202941934
0.02509295951977626
-0.03317845290063661
0.003206404691998681
-0.015329718074489993
0.04499559331943868
0.02701611353687089
-0.0015360774302371183
-0.03428558885778305
-0.06344957449153592
0.0067828209645348905
-0.031614544657587944
-0.09389980787869127
-0.06650142704981253
0.08129376527708586
-0.03299881924947227
0.05410813887552007
-0.01783248635991404
0.061978881758040685
0.0583582008737189
-0.041284771345032875
-0.09939878334038026
0.004833976148483993
0.45956692480221467
1.094481721277877
0.47947189625387304
0.10726219750367273
0.0651668433101695
0.005516068155584408
0.00379455192603874
0.031133159697257336
0.014448487775499355
-0.004973355250174247
-0.03607246715987211
0.0039244445432728104
0.054719989854157026
0.08910022934993606
0.014613832078445507
0.03775805675479865
0.013486535358140598
-0.0043664682201801355
0.025712853930634223
0.05946664171562421
-0.04431809180095727
-0.07256983511564545
-0.026650412481823305
0.010583097164985185
0.04349358088106158
-0.04947539124277441
-0.12442882613124057
-0.025472432833550815
-0.009695711282911806
-0.05811367417057191
-0.037804546440865595
0.04336417050434988
0.003906003479804956
0.017281105930465886
-0.017784111580527378
-0.037705520547916295
-0.018144911471207194
0.024944009708984603
-0.07456601056706084
0.08250851299160056
0.028742924784120147
-0.026794005214535756
0.04067035589432503
0.0611174533536554
-0.01651690248012192
-0.010829239488253067
0.07467371067365024
0.10594875734590492
0.001471782878405379
-0.05791071735444872
-0.02353010774622792
0.05165078722346005
-0.05151076480068972
-0.010414159987950944
0.014629244071581483
-0.04613573432038337
0.05482172809380385
0.03469837576021873
0.1004772954762646
0.0390730447928886
-0.04804448177830192
0.026518453045459574
0.049401083675792816
0.05197394070626732
-0.038842107394536814
-0.044816885117773764
-0.05698185595545058
0.08023659970694333
0.031143941192101916
-0.04106093121043554
0.0063594469378560285
-0.006184365670051198
-0.04862907344828415
0.0018091971978301561
0.009534764386021953
0.09656265473259497
-0.032784376288313655
-0.08546996620976692
-0.052447686767798866
-0.04463237117161112
-0.021346358801644767
-0.05232518645635712
0.04110610029094699
-0.05580163815047399
0.001000898414961512
0.10000960917610874
0.027678413588181197
0.02253785058561797
0.09286581003725802
0.06228247821184865
0.028256218367630176
-0.015536342497223452
-0.0011344437394896734
-0.0035651933833103218
-0.020071277378605423
0.010601825594146222
0.017537384852382803
-0.06223142335791129
0.08160212499811492
0.020489875653664075
-0.013139148097530879
0.011058798936472873
0.04651844455793003
-0.07333432062929462
-0.005253036324012293
-0.059292788743116644
0.132850191048781
0.006909302388430742
-0.05888728237997533
0.17997333903486964
-0.026800928939019454
-0.010453995903810371
-0.00683991199926813
-0.04239765282845178
0.012367600874807145
-0.11053700831800128
0.05429491914386458
-0.056390243536861034
-0.02076607611551559
0.03757598368430814
-0.010223050915305773
-0.008177387354881325
