ecg
0.8757660915967366
0.4941144626431037
0.12724650925233727
0.07889345448784853
0.02471305896643313
0.07103251597433423
-0.0437665251369635
-0.03868005138904921
-0.03591519964202782
0.004150027475448715
-0.07863440982258588
-0.006889427652878923
0.025058220976120968
0.04916472777900523
-0.00462625449582063
0.023967344545457042
0.05073397767239721
0.050387874146851724
0.02340538955239646
0.01753503463240331
-0.08135450498340763
0.030276407375224863
0.008778945539800239
0.02154435169283921
-0.0278863564088586
-0.02466035107394908
0.10500343429835977
0.09509827864636931
0.056207735499315896
0.021023547613625126
0.0009634806166854553
0.057561191598063825
0.06388649108948775
0.0024019193880190754
0.044352702049309294
0.029191723729251925
0.03791084111790491
-0.044208585747534335
0.03448910167835253
-0.030447636785534728
0.07046964460470573
0.02860578279537758
0.015117082861702337
0.07508181928637539
-0.07244542800003663
0.037694013760185614
0.0275174516024038
-0.03952510588576405
0.008903313179445019
-0.11887268701292548
0.05534389804558885
0.004800668847043633
-0.03464006160632474
-0.0028928660060785266
0.008447050452681256
-0.02294031860029155
-0.07270141831276414
0.003979060963396573
0.016877385535884852
0.053565679012386395
-0.033479008571284365
0.06778772904833316
-0.03616642168753159
0.0006730725364805863
-0.027729189838642393
0.022002949365101856
-0.08400682706295824
-0.03915946627434372
0.007139195720882376
0.008250851377519814
0.006568473723663471
-0.010401764684831068
-0.07192740126854096
-0.1180773734992165
0.04341525535189458
0.0023910791194975134
-0.024531901306372707
0.011360906842577803
0.018964655612217714
0.009903024813992923
-0.012037426199259819
-0.008771919224608772
-0.011526893673801084
0.028078663639416215
0.02339354573657504
0.05402163265955722
0.00024505185685750995
0.013676084379924167
-0.010307371267266647
0.019371182596663962
-0.03447629701447427
0.0961040798750846
-0.022051223604313965
-0.07074980068998728
0.06800683511143794
-0.04248793140755651
-0.018031735498643946
-0.022720520411395637
0.08596094479105287
-0.010214228486074096
-0.04213569241954743
-0.02626509836056364
-0.018541696170760926
0.052401175118537396
0.0262526721895962
0.04533921650095077
0.0645212817489632
0.027536950625167145
0.10359007545537723
-0.023961407833475844
0.009944433304564605
0.04009704650937998
-0.07684943837230264
-0.05021792387436669
0.009304268012040734
0.02373917004323555
0.0860892337849602
-0.008212283864513841
-0.005123595582190366
0.042546527632643064
0.01421727134492251
0.05457350963320014
-0.013921773498733742
0.038384294368496844
0.0420635739993388
0.05207257056172966
-0.035403809803888846
0.05232299889679426
0.005409206186446006
0.010023398902844517
0.006215625751441433
0.012304217590154461
-0.021807256253798844
0.0005347851786362089
0.1259150888270117
-0.005011107225067076
-0.007413728624025716
-0.008092639306395547
-0.010984303743535097
0.05407643225497033
0.0485191497183192
0.019009972457232488
0.0203602927727583
-0.0099729012846679
0.006333441896860166
0.018729904479008772
-0.11070885169251246
-0.015490844804798324
-0.08216429678987522
0.054394349176728266
-0.014843109658860083
0.003214682411319904
-0.028808436003105065
-0.032626261672700975
-0.02048160921222992
0.017138436398593748
0.5378756255492306
0.9130572026492181
0.42139092869006944
0.10120615628952796
-0.09241226594876617
-0.017988434991337395
-0.031699373076314444
-0.05184551594036191
-0.04160595084938032
0.030117996634627404
0.08246320220832352
0.07018545681213433
0.08283294518072068
-0.01864421206112263
0.04108113591434434
0.045350646214153544
0.008187873975821226
0.11891717417434584
0.02054643441702787
0.008305272484969541
0.022326603924389957
0.048941554396424836
-0.04834270056875161
0.04433344800016969
0.04117381717736818
-0.10167251673464134
-0.09233063288934776
-0.038963011816440025
0.044355249439135734
0.03636751719185727
0.031846814755203144
-0.0013752246929216569
-0.04452289757503822
-0.030760180714315688
0.021621013513075295
-0.09786522639395027
-0.02725013683949312
0.02007667897099168
0.014970478769708554
-0.015302734680304221
0.007706467898389239
0.09136943370365419
0.021987140063340543
0.04167918789337409
0.018521439563352667
-0.10899630047657179
0.02562106148352731
-0.04358494954240495
0.048151700609233745
0.05317901864751953
-0.047608593883229716
-0.00013557240717104139
-0.01637318881612498
0.09019276425422498
0.010307915854212764
0.09989708219801524
0.015154894391685911
-0.016608073228398294
0.02704350125131153
-0.020923502717210114
0.011795823474684051
0.0889438434099711
-0.04639129580566835
0.0016082753339730868
-0.014854941865921723
-0.029095248059077285
-0.061898082765048025
0.06711289449103268
-0.02218558618936668
0.030149941602496594
-0.02742019954669328
-0.027153005154704337
-0.029222716269800428
0.005197546266199801
0.013829881811538209
-0.005616831311921712
-0.012969200854502098
0.005591479684641704
0.0557199343603163
-0.0628312594661975
-0.027379174612928738
0.07280464075261261
-0.02796990643115262
0.007872104208038348
0.04987102059092119
0.012097582883264596
0.007156121479893464
-0.0018106463795570786
0.04008046267857879
-0.02605825935382667
0.008057769835437
0.06633275667045581
0.028858400633847255
-0.042859143143830936
0.010184699268813668
-0.07034992876142677
-0.016625929621228382
0.09888992647865398
0.014577623069569452
0.04618048332016947
0.07844829718971212
-0.03290852337892945
0.02100860767905589
-0.04237660033119632
-0.0411445054286599
0.015491991434575761
-0.011810983457712296
-0.04438051868823542
-0.017450381221718086
-0.0003200509435430499
0.05524200236179926
-0.07908299929433144
-0.028408998715767093
0.09391849737595508
0.07625188921348057
-0.02026996800234002
0.020164808850612358
-0.036815984572675924
-0.06572151967657061
0.034257421380430995
0.04440422969742103
0.032702758278637375
0.0226774301009883
0.09963178185820509
0.027551024066744534
0.033026905190401135
0.049582300199286417
-0.018960145978244608
-0.11130791333815755
0.0420064774922389
-0.022314446144151498
-0.035216186870774685
-0.08552545491132961
0.015169098837627735
0.054911644528189744
0.05711736441226378
-0.09264317168589566
-0.06342459563346561
0.023090316933029043
0.006048533120397211
0.048668119712905064
0.024944423953497268
0.03326353231942652
-0.002738186629319409
-0.055558106302454585
-0.008856415030802804
0.020183784341870604
0.09247359246902624
-0.06043296351336014
-0.046958693304938265
-0.042641792765370584
-0.05270313874761289
0.003223020634693822
-0.01984779700920623
0.05453874004549222
0.04033478032438224
0.48502734630865285
0.9476285184888084
0.4654261700564074
0.12074316515202232
-0.057014041767689344
0.1324610239752658
-0.011378279615682572
-0.0066865215756465105
-0.045064645369037794
-0.00911982620394576
-0.043841966267973966
0.05234462755000277
0.06436944443431468
0.02637335987829101
0.019484491525326553
0.045868738705762774
0.029169304010195518
0.09330324085143031
0.06213212576185957
-0.02348695404056031
0.024049435073631085
0.021600420871598327
-0.09093167210831377
0.034039455351738586
0.03024680538170879
0.03856821877102384
-0.019835648620278968
0.006264048503409343
-0.040483549900947054
0.005566631279755824
0.026693335001240555
-0.061019152745974484
0.05299153172890149
-0.038091005257836895
-0.08347256630320911
0.031022644531193935
0.08115107627338854
0.07623702171881941
-0.014262876134866188
-0.064729580090958
-0.007121507505497482
0.05718534681921005
0.050880504695008905
0.05609964175004972
0.02064220821182677
0.010805496466985469
-0.051485313558519645
0.007635526416235591
0.001447558459394005
-0.035856388265220335
-0.001422338173265012
-0.007487043197815357
-0.028400645028463813
0.018674162641259866
-0.049767708166647356
-0.09229051106437353
-0.009341040040594537
-0.024729845692931244
0.05814511642897527
-0.04242462036466886
0.03158404127080092
-0.06035985364390698
-0.06110234143268828
0.018651298934613793
-0.0068246212373536674
-0.04331996203836816
0.018233013579486156
0.005018562553888068
-0.03229235827400609
-0.01192607964423697
-0.05747677501699544
-0.06317529543900584
0.005506260659604335
0.04776386534682981
0.030704996498719436
-0.051756723155764565
0.04096139519043762
0.036338640789417904
0.031746353994395425
-0.0072558944033341444
-0.05381700937402267
-0.017490550464512884
-0.05597647101930975
0.05619610554281316
-0.052928702203312195
-0.036615623586415666
-0.16546810579780974
0.014163312500876771
0.1160566875899961
-0.046576755797590776
-0.004157604679844818
-0.019464830191544075
-0.04908652072494564
0.02006147196173932
0.04798390855927183
-0.002118761850944512
-0.015210948505956973
0.028543444186466593
-0.0655483008035198
0.015360226561348438
0.018372077050314503
-0.11855283426104297
0.043125367386326635
-0.05698539512834253
-0.033696061628654676
0.03606770227612992
0.020150502020432455
0.050780112529811045
0.10169808106128403
0.0388796453535917
-0.01189580347073143
0.025175967144804856
-0.03815938597892768
-0.05225252318547813
-0.006344228242391978
-0.014594979743260017
0.0503170803910589
0.007719737487953425
0.07932702231414972
-0.08347960290783926
-0.001541173537471488
0.04540949955427574
-0.04048716573528475
-0.048180396504814156
-0.0004906735941048729
0.04709617004192965
0.09043513501369167
-0.026470684036219994
-0.03864052583841817
0.0010111569527313925
0.14029955050892276
0.0266256175148087
0.015719010499619948
0.0006205255247756065
0.028813907875777253
-0.024387312779417917
-0.022122059904158664
0.09545802778693119
0.011433821054299471
-0.006838722830049381
-0.10123918981776195
0.018437287328181257
0.05070469500417472
0.013692493118461452
-0.014174044449521759
0.014796957128393554
0.014708420260237502
0.10208153667579177
-0.039517172302352715
0.11590797740361956
0.011936068775385097
0.05513107366633773
-0.02540950357476712
0.12339180050277132
0.046130626539707814
-0.0058953655255526375
0.026555937230743433
0.13125946192564586
0.5203853325452437
0.9364868625025364
0.5379401507804918
0.12938479142042203
0.05888415271286216
-0.05149720330260502
0.09962678915826872
-0.014878704948492248
-0.05825207092684303
0.035398647667977616
-0.009069930993996198
0.008550386026004178
0.00703131050122336
-0.10741769482757357
0.004636373962181656
-0.05237184801596201
-0.01744471883324168
0.0013828392249748038
0.0284552719433902
0.0006874064393540704
0.0564943584152082
-0.07220882929782395
0.061823555756035056
0.028391122423855615
-0.002819054317284646
0.004960779391398527
-0.047471856356139874
0.05521456644119297
-0.0047378777394417836
0.04570898010987201
-0.0025311520950343992
0.061507264507440665
-0.04215927100680152
-0.007439360881587265
0.024142343978897862
-0.05706542757120051
0.032588480386090295
-0.01068779283465064
0.012095816157314001
-0.05917124049777528
-0.017384512148816082
-0.11107867293013157
0.02443481618805031
0.03795321374248368
0.03337097918740404
0.006727670175699415
0.0657960177515752
0.025747719124098387
-0.03716289893312213
0.01630426528155629
0.034282541699558466
-0.0645733119262531
0.08125611927022013
0.06637295526929131
0.015947675789919354
0.07433453115242708
0.0041788514216360905
0.006323929398170037
-0.047264330336686575
-0.013921100224550434
-0.08950651895781561
-0.020328974768207494
-0.0004394760733490467
0.002505787867035026
-0.008092603417349855
-0.012686039778823302
0.044520954742167114
0.04673211177421886
0.04289473685347935
-0.03936661290345969
0.01631529769787687
0.04792635183881468
0.09961916134881797
-0.05877302163354147
0.05981858169768774
0.10193409696299585
-0.011456469924965698
-0.016257145378006026
0.04060076947517419
0.08102233355693114
0.03740427826129298
0.01414797701412257
0.035313721676195446
-0.09339087509450683
-0.00879011956660879
0.01280107495831058
-0.018464832250467248
0.01679893692753897
-0.020075998141381522
0.0018330807746479245
-0.0372271177855091
0.00580805615951857
-0.035726298650668904
-0.029060136579605097
3.7345884958701516e-05
0.049995708660018005
-0.09726502665793457
-0.05140448926710581
-0.03729392586885978
0.05844939139311131
-0.011743738596518592
-0.009594172322013705
-0.10426084313253821
-0.08064909221612655
-0.004427237234087666
-0.010724450997245906
-0.00997634918219335
-0.020087760178432196
-0.10402009275719855
0.06124014826498595
-0.01649660442489521
-0.014470307399745167
-0.01776438944722262
-0.01620922056157578
-0.04782131207400148
-0.06655788272776605
0.05488604462909366
-0.01641333211625654
-0.0785511807996282
-0.010039456782207483
-0.046847845227117435
-0.06264337312518063
-0.023092624519031015
-0.035858391375113936
-0.05421237914136451
-0.04276193777657365
-0.0025827596303779343
-0.10173653884125405
-0.10055664331784323
-0.11168079190416397
-0.059398424175098635
-0.021038596358867085
0.007459166834183323
-0.04943286546052611
-0.010815224786346785
-0.019514558318401404
-0.00954746902789173
-0.00040115714635704315
0.004170201456419559
0.12198356679408842
0.017136295961897318
-0.06491659753210048
0.04599510717796734
0.0008890168182110494
-0.005562635912023377
-0.14812991264235212
-0.007942299790647775
-0.047416244983161424
0.0517629410738985
0.021468419961828526
0.033559956040083196
0.012382975374115653
0.019940301593746962
-0.009110716951959304
-0.021391662536119637
0.011440849728561244
0.1446488976874708
0.48834941533516973
1.0325661131233026
0.5436671205101199
0.17348020793423102
0.04390831605143931
0.013378485533075336
-0.005391181874056112
0.0253562623731862
0.057322714930227815
0.06793105063384851
-0.020162987007710548
-0.06746506657047101
0.03742904038985161
0.001856067058801143
0.02551720289128667
0.05377360575970465
0.02883837285570336
-0.03782449886466973
0.04652120730864016
0.002319721968702817
0.032166824546373866
0.031674077323608926
0.021012308486961936
0.001821010117040851
-0.08141588799948951
0.08616041150733975
0.039441306165993
0.08692093422794345
0.004556961110328657
0.05053244118630709
-0.009009150216073621
0.0504212855993153
0.03239662311137769
-0.0022531866701854977
-0.08723008219165329
-0.09769259054969409
0.06260998850137053
-0.03388175424988194
-0.03868740288707407
0.012773553035721233
0.03513395937970838
-0.031266183863783985
0.030466708224641138
0.01127329882290838
-0.04692294098064408
0.02888875126219478
0.01625526562194465
0.022935883249965327
-0.007672786393196168
0.02677202666385699
-0.05392949676937599
0.047072954273989095
-0.0473667503160157
0.01563794932158818
-0.027969312351361044
0.04753853255343124
-0.05953969707428245
-0.00031744152650855107
0.03953929868416202
-0.018426724367336077
0.02086397677423195
0.03801418315734842
-0.012975794292982594
0.011380827319853824
0.0132090598402034
0.038139273527988495
0.044767461997696816
-0.023960184243944083
-0.03544410116332469
0.004114578570778781
0.0058367237894049835
0.02462590336520836
-0.0020153763381043103
-0.11509729202150268
-0.010530983472826798
-0.03984337584503095
0.013033769580913276
0.06412573481370756
0.08729625685402295
0.058410184296259784
0.027294080565938794
0.09972758929714044
0.024045358451472574
-0.011797049878043203
-0.151665811600447
0.10944562451573817
0.04570640655836211
0.037790231926672
-0.01622720048500839
-0.039541697875062155
-0.027736943718520347
-0.07403282745710825
-0.0035117861556398125
0.01627491980588965
-0.013511938601458518
-0.02602490346580264
0.009266724684884008
-0.041095133073858085
0.06975650272658267
0.0013155278316515618
-0.020561506337333724
-0.08162122204785444
0.010083963753502973
-0.041438488181082866
0.016746857218127832
0.06351515570480841
0.0656849219897828
0.07576873195204692
-0.003834945720494195
-0.0112696241015041
-0.040309437757554294
0.018171701313704283
0.09648459465294464
-0.07473276880353677
0.033428756247100004
-0.11924048273501474
-0.003799762990345123
-0.02668243995380747
0.08787671045752332
-0.15291436548237228
-0.0774305946526157
-0.010751998635093261
0.002664225755295977
0.11191414679116363
0.07277607272030145
0.05497144907300451
0.05555462324344216
0.009545166557316683
-0.027733977161017838
0.12584340104459898
0.0036013459783523108
-0.04665538883395126
-0.04382858628476422
0.047141459363890914
-0.01114741213176986
-0.018866237326817942
-0.1027677368819726
-0.01958786494483996
0.0015666077813311443
0.06987714070939717
-0.038448780921289616
0.020788071976617712
0.05979066627898231
0.08944187425557126
-0.09294878372514986
0.10824474372378892
0.026310616708838105
0.0394107879407997
-0.0749528961127133
-0.06704027379987607
0.012932798197641813
0.0020112390600048624
-0.05055334834342933
0.08735258766764414
0.49492639501707025
1.0469954583867058
0.5204900371734973
0.2105793901512807
-0.027855920534766744
0.006054019138816841
0.02176077875605906
-0.024247533132597837
0.024670835816279452
-0.043290106318795304
-0.0012429326177355307
0.029873440452574108
-0.004148759229387893
-0.053068813649243464
-0.07031711211059259
-0.10369251398310714
-0.09302765289995987
0.0428402581025636
0.014606717885674537
-0.006370031335166214
-0.018922098799901473
0.06790187693228608
0.008874348208730095
-0.057039368144071415
-0.015968392325978856
-0.00930470804427287
-0.09871288541978045
0.038238549825398725
-0.010324707667108128
0.03014606971876374
-0.00798280401342062
0.06571119873523544
-0.0430858568224236
-0.03116646596032942
-0.003844960604016995
0.067524422945881
0.010323015016137128
-0.06308013787563065
0.0016229169424123568
0.012531973437771314
-0.011223822975607093
0.06233367239642206
-0.001537278382788893
0.05124915749415091
-0.041868036291358435
-0.05615894893393528
-0.008859946591709003
0.04483255242945637
0.10002814065487371
-0.04262219224439234
-0.09054164156721882
-0.03271076555786217
0.02364997440582447
0.029991993534444296
0.013052416518450316
-0.028259682347550493
-0.07603686684017219
-0.00561852933957541
0.009632065006201566
-0.08251177346134973
-0.025296420798146174
0.060293632990848105
0.01162290896231212
0.035052493309129754
0.013519107872595193
0.06309420229826293
0.12615790518920914
0.015274785925864433
0.029585654095902678
-0.07606507537084277
-0.0008824327188124287
0.038706627098688585
-0.014594350033143752
-0.0785038353020663
0.08345555045071967
0.014985000616151871
-0.006188407995356842
0.0231410550827823
-0.008059925753352062
-0.033744280001919785
0.04473434931956288
-0.03845328010636473
0.0018385959080629338
0.08963113735363473
0.02633100453935124
-0.03883578030606658
0.1229464985493277
-0.07553740382771407
0.0444752456336867
0.14483742183419532
-0.04415955791807936
-0.024864336080725448
-0.008813953898378147
0.02725647107392038
-0.08307493416646256
-0.029358136340861474
-0.05200660700317616
-0.038837393708892456
0.016111876042177623
-0.05310145890592495
0.12525459556598484
0.02134119156077103
0.04436387228892483
0.010746866768475496
0.034731726489131254
-0.03635634689461273
0.011864072745780873
0.08800850966889207
-0.020667910161852203
-0.01627518547550184
-0.05572266595098522
-0.05184931977198788
0.006128673252299983
0.015438813725451098
-0.03039998294903822
-0.09602911429481276
-0.005840332326174981
-0.06957022551002823
0.011483770721645171
0.04910853263989502
-0.02282423910214508
0.03271342416930841
-0.016421986063095775
0.08329533001791216
0.051313714465031725
0.01787287856315665
0.008978374911161753
0.08181998535986229
-0.05073786983793768
0.12662723545438329
-0.00936837671052401
0.0322902384919261
-0.03292691708213879
0.09407124178857132
-0.01994242279004861
0.019316334263084527
-0.10193282420310541
-0.0015041458493381692
0.011118050013780648
0.0012085724919789606
0.01207142462227584
0.07274903083558269
-0.060710365410436576
-0.0479212477573098
0.03726841773882456
-0.0742208905785237
0.0993000861279988
0.02432678655152638
-0.06148977363171711
-0.03613155532720257
-0.04519957491118959
-0.042390585981500105
-0.08485657275133646
-0.050775143598322206
0.03768782996436209
-0.024808130897098546
0.16067828695008218
0.4618870579009747
1.0117596832015028
0.5304035813496956
0.13065845678140361
0.08324868844765412
0.02208103253510721
-0.025957137241750194
0.003252806206774755
0.0017213703760778705
0.04902776841602808
0.0037618945585963085
0.0002633294435472042
-0.09469457313547755
-0.0014640913794021224
0.03535321968525037
0.05586484588126607
0.04007997222538498
0.02270760851857106
0.013314692773283916
0.004728334500641765
-0.07731128855043036
-0.005338781634299844
-0.014046407706933054
0.039223401060734214
0.0667151048897446
-0.046533197731748
-0.024629052344472418
-0.02007878349651744
-0.05270283265190793
-0.007468108229895826
-0.016942025703934868
-0.02462304774939877
-0.10667112184390931
-0.004994432354084854
0.008710955635862586
0.05664195906726968
-0.08027633689921082
-0.04437617902454438
0.0009283785450417748
0.06463005046490365
0.025757937987321795
-0.0500697822053833
0.01412666295673054
-0.026774176290216174
0.020236482088454084
-0.009934003334000525
-0.03836088988248001
-0.04270357934409378
-0.04021209422486503
-0.027692516703674643
0.07547479018233082
-0.04384293673302623
0.04006886644119475
-0.02058534286146191
0.01329991535010581
0.030291299533051465
-0.0697751573840859
-0.0006035795912349034
0.14686483639829076
0.031418938231353964
-0.026311815122709525
-0.07808474909797132
0.01121681123769293
0.009005364323627744
-0.0080180474344653
0.07169045595980515
-0.04611964873290824
-0.02363502408247161
-0.03248542870673013
0.04519867323775248
0.06696380083858476
-0.06498114106335388
-0.020026846459741864
0.09555095778181838
-0.0026022006351219974
0.01798883102951355
-0.03259475116573941
0.009995263210089703
-0.0019151573230174615
0.10146415147446347
0.0014467253566214106
0.07541570231290845
-0.03860315152556813
-0.008867324775607878
-0.021052702868750172
-0.04113178544267618
0.03453711658433591
0.0750570277999361
0.08762080739617971
0.030675302268015216
-0.048008443071507936
-0.0283105822438889
-0.022036291229588802
-0.00872512343013783
-0.06480020720209599
0.03854530843011264
-0.024025405813006107
0.016461738892595133
0.035413256478105996
0.012784945389753692
-0.04893402944634066
-0.0487488961851592
-0.02450882703384721
0.010128294771556473
-0.1129460725033808
-0.08278279327309324
0.06907580876179159
0.018117256770254317
0.05375296207992032
0.013331383170116638
0.06871717601599416
-0.08285411569769892
-0.03526328152025712
-0.12229378247946993
-0.04952381586041382
-0.06497635311305881
-0.07591559602689757
-0.050911878156168336
-0.0455691837993317
0.019484277888801835
-0.02743447900698172
0.03455385971638005
-0.05238425599779051
0.0028052557766161585
-0.06646595034596602
0.013620033082395473
-0.09276983851475651
0.13522888819795392
-0.009218815642163012
-0.043717412213005985
-0.041384401960983586
-0.05574768077407356
0.009112532176420435
-0.05533929453447461
-0.03931456063140036
-0.0622852766101305
-0.012789079340080346
-0.06525978794121978
0.012200404573252416
0.025865420667490577
-0.008519550920230668
-0.00653361650815028
-0.010597588461293507
-0.09886423748303613
-0.021029869354748494
0.08437380654991868
-0.11813285007834694
-0.05828030475818599
0.03584151519689264
-0.003544413640906399
-0.04514023464472719
0.039863529247523205
-0.021120990298268378
0.025365891115674256
0.007694953919507095
-0.011926072068260785
0.015824851751625617
0.0380674030838879
0.03565006518221708
0.5506685513167375
0.9748457123333805
0.4251798966091871
0.12297203680124441
-0.058319640297725454
0.06449036418037525
-0.02924826459329016
0.03959144592023845
-0.015173765050148847
0.06268244919592068
0.06478769951867946
0.06059172993187806
0.11678111158836083
-0.019062494332369128
-0.02285451232430422
-0.09447935491855336
-0.027990950194578687
-0.03627005023339698
0.009671280293753158
0.057568199945845194
-0.06762458062351559
-0.05891144477210798
0.03388752125788102
0.017147086619503083
0.056117135600474426
0.10036106671044896
0.043295636009301024
0.04565029526886933
-0.0009003299883145297
-0.02251039424371233
-0.052209762798691155
0.02407298717866071
-0.011264297893319047
-0.005377597344494906
-0.009249985748087525
-0.04157580570451582
-0.014178165276545222
-0.027969962440027748
-0.0460003939101793
-0.04888935555969597
0.08350528598747187
-0.042809663406635515
0.048856180138485944
-0.03291100390014972
-0.05792394707306661
0.07315735873837441
0.03205606437479031
-0.04167819461814319
0.053519631197731954
-0.04937087408857972
-0.03161881133828407
0.036733717211360255
0.046700990476329675
-0.034814078913828685
0.09947220266658705
0.055459454635299256
-0.048039949281184643
0.0031833745551304257
-0.002648599143586966
-0.05038743408827798
0.00969940380115517
0.03649064542102072
0.036319317393501804
-0.019835376067961683
-0.03267431111884286
-0.024900914246914024
0.06276018630097638
-0.013180256743220079
0.0004273164961914232
0.023019049378644657
0.010864090565496833
0.019749491176552253
-0.01717201193795994
-0.02073378335890745
0.02163068214272229
0.04347123974423696
0.02900251197992741
-0.0643046986819321
-0.009310106666580418
0.03869027968350582
0.035734614267851884
-0.04179739023356116
-0.1356416296885549
0.03498256470217845
-0.024426020278328773
-0.09305054861764016
-0.019299946598098614
0.0069491784169720535
-0.03022087969254951
0.0922427246737422
-0.014726236375898944
0.08984750012810427
-0.0008278987166054776
0.021018302822531892
-0.006178758710846548
-0.036137159129918495
-0.10051194925129384
0.11152852781510714
-0.01594094534212656
0.028542339394965328
0.06041259418157603
0.0704383380508771
0.022161059611276082
-0.033453729995559754
-0.051978773135290895
-0.13760233387238807
-0.04299731095955897
0.0843484431856214
0.009562162626439509
-0.021259049703740547
0.050391797063110255
0.0069571178274579195
0.0141751966008265
-0.019492570425537818
-0.01892784750829676
-0.03810866792828342
0.01190723489936579
-0.0020745390726045016
0.025803541413210798
-0.04085433621484644
-0.03387732619503894
0.05308242368083193
0.02735079589469465
-0.049620763789975174
0.11288099765860299
0.04119597077762727
-0.02272665608580215
-0.056630176259958635
0.025342022119837895
0.051562358701139024
-0.1244663843530358
-0.013306018070414777
0.07274298714149327
0.028316844552321085
-0.01113669751314332
-0.06151321453473592
0.03831563385932133
-0.013894526823911048
0.06570242271344377
0.07671544176011258
-0.0036316321950014586
0.003443933150148688
0.18435787415449062
0.023330491219682222
-0.053831889418541945
-0.04109345752000441
-0.03452569141363623
-0.07979894712924082
0.0027206212686275498
-0.04185169167797327
-0.023743448193066907
0.020650038368259262
-0.011118320980874372
0.0891895636279945
0.031973982089068306
0.01740192100320853
0.49100550728351133
0.96332035357186
0.5169787861402331
0.0510595009798179
-0.08062850809941802
0.041322520527053236
0.007028950708350009
-0.07392915257766014
0.03426692859627775
-0.0009629919089592831
-0.026676663864213263
0.061375384313080074
-0.02222965804028824
-0.053988100111857076
-0.06859924448221129
-0.05553998729755786
0.008870204375915632
0.008464677090274375
-0.07095755353736853
-0.03992449270995499
0.03555213690160351
0.04712766188723912
0.06758189456880974
-0.06862156960128868
-0.0025757369102553038
-0.08475849091006507
-0.009412611605508294
0.019123878381988244
-0.05976901304427379
0.09863431069783272
-0.02777283103806277
-0.0479901067549366
-0.01516804464435179
-0.045414591836785756
-0.01042332465949841
0.04578669745288371
0.030420753525155626
-0.022589547961053932
-0.11382176501074182
-0.04080932039861934
-0.032572875796650955
0.023297624368710974
0.07237164256345889
-0.007845218298872006
0.01449391742084378
0.0025900591969473686
0.016347493391359432
-0.021476426108745526
-0.04523851869696899
-0.08108892607134005
0.007959070564515917
0.04454804470937715
0.04846361691821868
-0.0091599249618854
0.05339127053334541
0.030917187422594385
-0.01248010916097371
0.07815459647833613
-0.009947511733191184
-0.008034946498366379
-0.05016568512913566
-0.03379510623066014
-0.006212649833027509
-0.09459964285007584
-0.010919837506119775
-0.02617780666092026
0.00833703445050933
0.05858728878595583
-0.008493275993153237
-0.038533431504242745
0.04432925320965727
0.031043001099288377
-0.0644855134643916
0.12271574142425763
-0.08266901414477576
0.003326225934322169
-0.04802699621461379
0.040045500425326445
0.01896900616186379
-0.03200952929936261
0.05117436059621098
0.06183735390297305
0.04393388731281337
-0.00853379075030535
-0.045985155144301716
-0.0383502018159663
-0.02050267688805637
0.07958966126966543
0.0644548048041485
-0.03798632171736272
-0.049463209635828835
0.0042013359725708984
-0.020196252872923252
-0.008355351577709466
0.043112777473293507
-0.010487642862356336
-0.07985686404561998
0.028729105839600273
-0.022841750416713245
-0.013434387777391109
0.004235743194458813
-0.04367643786231269
0.004783307789582381
0.04451103936777186
-0.019329556753945758
-0.00032635490832862217
-0.016518030652314535
0.035230732866845846
0.038867488160718236
0.010886403045244606
0.032790919356817376
-0.010543129007613233
0.04280771760658353
-0.00556072190687035
0.0013885585182775789
0.009663370080770691
0.011440919196156758
-0.02538991804522822
-0.008645331423813544
-0.021582601567954007
0.07050757833084391
0.009588554820498899
0.01598142683981121
-0.023402128853282137
-0.026406273086692474
-0.029456662380755283
-0.06195270639774128
-0.00838172257359853
-0.04638291998037519
0.018400976249594036
0.016381703484037197
-0.04633511578465135
0.03943759058065465
-0.04716250539231231
0.008051576515968446
0.04943465193279022
0.0625914188984929
0.06378369675775714
0.019825403417720558
-0.09115748199950646
0.06422215768941898
0.018393947253599146
0.022549967431420775
0.10183825998927637
-0.026073614446581263
0.011733303759126373
-0.014737615134170821
0.005379536218327626
-0.03271916819081869
-0.04345819068758323
0.0269654616230363
0.05629939376580959
0.004871642653436918
0.004792537387251469
0.05854914026526922
0.04398241671703014
0.10226190138631365
0.44232142788329176
0.9659619307324805
0.4502936467690902
0.10411197712958942
0.07446116717034378
-0.019106753956752126
-0.11635842590009299
0.009542716438370973
-0.03148685452164856
-0.02547180092392636
0.015784932840309608
0.08725212000218148
0.0002915357182652993
-0.048456407976636875
-0.07896028898430058
0.054899693928134055
0.021204668275089385
0.0052439030057982025
0.03713767255087405
0.09196718378008198
-0.07699949372622356
0.008432370713521676
0.0011967716358658776
-0.023607424874359656
0.05506716716579912
0.08968172012844737
-0.053964306807196584
0.006375258354247149
0.04715024449012505
-0.03888424702118372
0.08421837478528967
-0.02624201817157213
0.04796250457125722
-0.019631518667958998
-0.020065111644847335
0.10960340896247373
0.09015165127646026
0.11051713657281254
-0.07794443800217937
-0.012261300230357406
0.005841402631862377
0.010742289849401763
-0.05109016613575822
0.004214629724062935
0.02453700142330351
0.034769108942503846
-0.019665742607552782
0.0044074130467953885
-0.009877007290161118
0.024628198696014472
0.09752731387471872
-0.013707181950522737
-0.02371250720013181
0.028846413347752894
-0.04769258524485393
-0.018348117326267028
-0.08980750801860696
-0.10601275865816387
0.009935206396347061
0.008308015570049641
0.0023969047672620526
0.005490041698225541
0.04156070235819926
-0.04663129627639018
-0.03473648573441415
-0.04472182861039367
-0.06415081033430559
-0.028724300733787067
0.07070734881245028
-0.05340409438388547
0.026587498929524722
0.01448755953971436
-0.0458755904982714
0.041688039013945896
-0.06283557444476108
0.04580426299329792
0.045347041750242185
-0.08784450990063383
-0.03816844250092696
-0.004993013139519099
-0.017119743608581785
0.0008680294111947052
0.019713426562857093
0.056316662112610105
-0.03457595684509689
0.016593462051350896
-0.03383286150303184
0.06557085461794458
-0.03644150712375206
-0.027641781910704172
-0.04819475839459299
0.08552763105617045
0.05809827909013329
0.020982349092771118
0.00486339262539324
0.13363127126934604
-0.005717723532755958
0.02529534219484903
0.040412666508936435
-0.04922289010005323
0.011882729131471283
-0.046332724982172245
-0.030934553503179658
0.01367974236068058
-0.01052601326832629
0.14262056925410754
0.055731067684043505
0.0014410287419850654
-0.01890120591298882
-0.021570052618212935
-0.038200554514213225
0.039160407296494004
0.06027811611069126
-0.0686318859722485
-0.06887858601766556
0.05286803213140561
0.030107581813489506
-0.06401393830302424
-0.02992517098903069
0.050008280164101526
-0.023995359425619058
-0.020475770707153396
0.017628328523765845
-0.1349395529499853
0.009933265755320329
0.01059600594099007
-0.008262099835519664
-0.009880529650513191
0.0528017463447191
0.008250230526498722
-0.06079038814343181
0.09128096670048258
0.02002372670601146
-0.03863762265589769
0.025288640415605797
0.011379697858127064
0.03866134828668746
-0.051297892604580377
0.0606395047108687
-0.09475084459821108
-0.03774029360223546
0.010613946028099919
0.006681479548444078
0.04247147152920212
-0.024634694540460585
-0.029184042057010695
0.07354136947662417
-0.005598682850798438
-0.009083299222722711
-0.07866723296772254
0.042421158458690364
0.07635381140952652
0.049176513966483176
0.02380778061470901
0.004575186524492698
0.08913181252856013
0.4716249408521663
1.070990994465872
0.492252210516075
0.04524873616726151
-0.024346188519096472
-0.020289291611646477
-0.046994109137502314
-0.04840931674186356
-0.02668531195801584
0.02291797034941282
0.08433779017300169
0.05999005819613107
-0.019727012348100408
-0.037788800725155725
0.03736208300104874
0.012683374889243018
0.09733200020512098
0.09791197735956293
-0.017575038864445
-0.06272722355446333
0.027793987538827447
-0.04443169086197116
0.030557142026754525
-0.08110712760215129
-0.0381186391022294
0.0688879914595962
-0.0023285823605210445
-0.02935641675849355
0.04418129495898307
-0.06835728683777713
0.006213660798106448
-0.007686434085294024
-0.012800881545458479
0.028588278309160237
0.03995491446742359
-0.08244545399193065
0.023076212963552126
-0.029600247969222365
0.023509283531009933
0.04140293091368444
-0.052755260588435715
0.01250970425107937
-0.01836499530580061
0.0628998296916195
0.020523696084835008
0.00045104842930915074
0.05105031882943378
0.031221379534291382
-0.01981307162339768
-0.022030589476648384
-0.04132483031004802
-0.022422026399679492
0.03330752720729331
0.0015855270835137083
-0.01603634726516266
0.0007009866941281433
0.004629997662744111
-0.038668729871185505
-0.0016209817206411514
-0.047085966343135915
-0.08436882687610357
-0.01535200592289978
-0.009324011556488829
-0.05243015941322896
-0.041060961691936265
-0.017826843011554284
-0.1191142343400109
0.0004380033812162289
-0.06043758736428824
-0.04985917436746569
0.028663125547657688
-0.07326701757917264
0.012582438307504735
0.03971610832715161
-0.011889650898028967
0.06459416901856242
-0.020918308204196823
0.009965293970943555
-0.04116582845711266
0.04175418426917579
-0.07446539491831938
0.10659964955921407
0.022214097498106405
0.011106222962848042
0.07920249926214668
0.026152334578362697
0.03608338121921593
-0.024931878340037975
-0.022557498346405056
0.06070459518199958
-0.052787679848493675
0.0066399893955461494
-0.020532149162293154
-0.014857450640146295
0.07430925132251105
0.07434168462515388
0.016916961414077638
-0.021418312774996916
-0.09176907153077603
-0.0806440023938706
-0.07046337805510654
0.07022434857252831
-0.01878070673272773
-0.06114893362178108
-0.055384123416205445
0.0180657333342169
-0.03640843382303305
-0.01872638722123583
-0.058163633767641276
0.00460299128014102
0.009212146365770755
0.1148801783524309
0.024792230876814543
0.04600442137205454
0.07553387433216607
0.03522194579160553
-0.02198812823764707
0.0686360787958475
-0.0433253507783149
-0.019619188363929153
-0.02417344111674924
0.044648173310410426
-0.04148943986509659
0.017043127154202156
-0.011682035981411433
-0.005429078151316113
-0.026981127116153653
0.034767113246213566
-0.07109936755686146
0.027839266337275476
0.012464845509020425
-0.035397542009853226
0.12027195242416684
-0.020289913617514505
-0.07030411859969607
0.0033752276690603754
-0.09432891557306906
0.022062721228000917
0.0165806042086229
-0.04597209816089026
-0.03693843215379349
-0.021787339522651588
0.053769997060011336
0.02439364425243619
0.05416606169007104
-0.015391092175359958
0.055083076471152084
0.01808099182038534
0.04847090250646488
-0.019676724857389402
-0.002262247284160712
0.059095295464077324
-0.07753397147406209
0.04638740465266956
-0.03884012092751569
0.012960647547944404
0.04944030775493902
0.014045884122682178
-0.023499015254987734
0.004250574446397735
0.09680036624659791
0.45461890729313115
1.0051653818412092
0.5081397428469161
0.10721002893365253
0.044966950262865416
-0.06356960261455967
-0.008191748999940022
-0.13293726365717776
0.022097637182761906
-0.03304950879132161
-0.06588130720862477
0.09251399167124019
0.028260269818255714
-0.04453985631110548
-0.039694277906675575
-0.03727945898427639
0.052241340477238364
-0.046942762030305465
0.008093229788670287
-0.0020054292728477812
0.0036201185941258564
-0.0193595264132803
-0.0020459969919484292
0.00028506517783217795
0.03517276826929333
0.018288140199550298
0.02393007412790049
0.06632475490938558
0.04017420573952394
0.0658500387088226
-0.004071728489936932
-0.018118706923406714
0.01590874826809105
-0.03393972312708661
0.03764719090023719
-0.01658306141787796
0.013610446508335945
0.018005606117935263
-0.010703339582558704
-0.01662116199686139
0.06926095370843455
0.0005666005459141235
0.029257094694112924
0.011351191178402803
0.0007226769794039971
-0.12046381389369801
-0.0014019905885438307
0.06361110312992853
-0.028671173042166744
-0.03628153522929649
0.11201778459777084
0.007968833478690074
-0.0804829397572808
0.017022604424780253
-0.019419156759030696
-0.007206449911643823
0.07416252579557962
-0.025458276207757292
-0.03785963262271248
-0.011496423713668978
-0.04806160463803093
0.00046188728862978415
-0.041798783955255756
-0.029473960213261374
-0.023361775075754272
-0.015112453132879459
0.019504756742636922
0.05592903065409482
-0.04802145170273906
-0.040414370009496194
-0.082790621781232
-0.03745479045488584
-0.038041033026738946
-0.12339753750794553
-0.02976593005074072
-0.026192682344464965
0.07134740213092823
0.07374117183500731
0.03504103383441764
0.06939215545806028
-0.026852221467010325
-0.05357313584934072
0.025424708230473644
0.030278002193739134
-0.03316086457938799
-0.03444110031917299
0.015033101686279464
0.01846435089168345
-0.003951737801154214
0.07534537224576239
0.022601972009569843
-0.0559505355964116
0.04125953649846602
0.133054268903675
-0.004053381138363975
0.03128944923772726
-0.026255840469968768
-0.013445829768391255
0.08143785063379777
-0.016292762011671763
-0.008666922001650408
0.07493742278502787
-0.012396438888205179
0.09821371440485298
0.03968446601120429
0.0879374443247929
0.00918991353155355
0.05773986709751647
-0.004246946268854346
-0.009238537073229197
0.018995001999435143
0.009767112810875401
-0.05143592983725184
-0.008749093997185948
-0.06662103495923533
0.05999330869459414
-0.005836203550380003
0.02790019613404687
0.030357363787562833
0.009401384807656232
0.07169298617058538
-0.03774303565346093
-0.03314368402147625
0.009387992007122165
-0.0283765601467441
-0.026704726702027212
-0.033582587424960154
0.003106311009749368
-0.015672301472645724
-0.005144270782250018
0.028847935346764605
0.08189881879989397
-0.09092750000452177
-0.06351544437152669
0.01885942553734943
-0.03385761818637747
-0.014980657987013035
-0.09899597017801547
-0.08140853635807264
0.008741632043608649
-0.02606927254717345
0.09990923630409496
0.045079221740193055
-0.031677352461147334
-0.06515317781096604
-0.08233075176093502
-0.0025039794414150624
0.035077571339027495
-0.040637516436250916
0.026857985400224063
-0.060547330767608654
0.05626610236914355
-0.03476200658499425
-0.017045422394722034
0.1084653062889563
-0.0034393025537579644
0.1651729612324475
0.5466261301652048
0.9891060028886953
0.43954909742440573
0.08171889814353464
-0.0936818647699405
0.007088597537062144
0.016668357456665256
0.08253265210330148
-0.01107927360818619
0.006988828737153631
0.05573258682634537
-0.0502466836716876
-0.028106645704852773
-0.014109118112203263
0.012236633034938424
-0.03956923703494659
0.043944864519616794
0.027838527464203972
0.01046081230794689
-0.04083296224803376
-0.01884799985523539
-0.034247722914455346
0.07498241021735702
-0.02133681659021451
0.04739402369174565
-0.07564713072947803
0.060019518159708296
0.013271393618016328
0.049470981403540365
0.07430056928523612
0.02676983675424559
-0.024387047147134765
-0.035595990736917334
0.03461581896162915
-0.10704678297242298
-0.10721736444512027
0.018792728801522204
0.11585810485738678
-0.0858645175703282
-0.03760372444016439
-0.03912275303758529
0.009929283712503477
0.044606488961293995
0.0989785701076731
0.06102897966008031
0.024836157518910634
0.025999594996283334
-0.06101651762503516
-0.07424471371751291
0.0482825294270266
0.017448519445338255
0.11047781907319205
-0.048488366749250944
-0.06400037918471023
0.06913864448151973
-0.013360143338815923
0.009154833866505984
0.10487232630872508
-0.03398187800286305
-0.17810941083087495
0.047359870803895074
0.10303878208018391
-0.056678288279995596
0.0372218239233245
0.03216797407019919
-0.026368894462291667
-0.007794092979267484
0.057741405934043366
-0.10476447974175636
-0.03169925779431059
0.06373174177551287
0.050378676401569046
-0.0001957975067425651
-0.03930803723669398
0.059779613292547384
0.01914996354852974
-0.15173966936509417
-0.025681415443188145
-0.08492392072334266
0.008790781320124317
-0.0719557327634027
-0.027646528543718442
0.01461556394238929
0.044811214269916945
-0.018727604092284928
-0.1034342515373601
0.041470151245426856
0.01782623435155838
0.06641199769054233
-0.08058407838105322
-0.04826334738747798
0.056737016936982826
0.04505371594583971
-0.019815084309708943
-0.011120568162710733
0.12305308881755057
-0.04985765444910718
0.11293623498489667
0.11847367200914843
-0.0007217298425339646
0.03849224636637072
-0.04380513533032355
-0.024129617531284422
-0.047907249846281696
0.022198038158255554
0.059513392480746476
0.03893422196866413
-0.06460914247697626
0.04783175857946276
-0.05444568736346333
-0.06955327983652136
-0.0723093692984662
0.016007811841738825
0.025017099435063785
0.05671770858386621
0.037331049988402906
-0.05071229233084168
0.07245632564079724
0.013357433766841354
-0.03939398530611636
0.0201462634712256
-0.05102634726789769
0.07398720751572248
0.06366783455096162
0.04361140531718077
-0.01958104606895685
0.09125719211787835
0.009077843485526878
0.08301639664912226
-0.020088023420786968
0.06409823117140488
0.05313225651253437
0.023315205222173542
0.1076701996735161
-0.031890417742055886
-0.047250885072358445
0.05619660796293866
-0.042462241286607784
0.004376377785821039
-0.020398370864563038
0.05965214940032009
-0.05546332656693451
-0.011227756739345065
0.0029507290722928193
-0.005494421122898562
0.04931828253976084
-0.03311909222836448
0.000849639821347991
0.09867653546822884
-0.057780324565708585
-0.014510024128659213
-0.025789959497314968
0.014706447375928303
-0.03236919531363058
-0.014934805736268743
0.06555979462124857
0.03819208634680915
0.08370852789478903
0.5471038691456055
1.0142523681197209
0.5394588356665727
0.12836347926964747
-0.0030911041882439386
0.06560413106061942
-0.016228470815587825
0.02517212187999983
0.0069126808887975885
0.01993113938078046
-0.009176670534621897
0.04377209866918814
-0.00041084971349967527
0.011617490831591913
-0.05710051725457203
0.06906447562323552
0.029983919792338366
0.047317610475964694
-0.06828719499939732
0.0064663323623258195
-0.039144542353778775
0.05038485113311184
0.003170023596597047
-0.00197180635740509
0.07290290199993864
0.013010428654125886
0.043097702393148626
0.07921235706850668
0.030516731227795187
0.03478942788102448
0.050804322245617234
-0.002216278306082777
-0.018553747530755654
0.04043722687068421
-0.05848701109660375
-0.01759099623240201
-0.016001152211673628
-0.0528663437456102
0.03817630889423004
-0.0002644977609419646
0.06668415659531066
-0.0342188286452581
-0.05588351840156245
0.011759544923843316
-0.08868520288174153
0.0030173862643806016
0.07479724747952417
0.011475754757713057
-0.006717518353523851
-0.03707402937345359
-0.059607488187441715
0.056780020781164314
0.0022530721375201668
-0.006146710521305176
0.008405440223357588
0.0019381847725523796
-0.01908193838390413
0.0064565769646437905
0.05514165015777396
-0.062483223614089915
-0.10282341320739224
0.03068032697118745
-0.09180503686657232
0.02504343837489653
-0.012032881060096961
0.07561162501777245
0.113239455632831
0.0015232308947575987
0.03763346516253194
-0.017199821299295776
0.013438479627072696
-0.006925468972444839
-0.01479264153516846
0.03550402899215961
0.026978900098990333
0.08959761562482095
0.022337194344196017
-0.01408776854115721
-0.01382586296105021
0.02008162319398704
0.07503071067197137
0.02516238221570284
0.07681019714162607
-0.06928169117605314
0.006370667840473335
-0.0522546090566238
-0.02450829706303215
0.016409622382357898
0.03339755169233071
-0.03858042452903536
-0.00380974193472787
-0.008987327424312276
0.030559467237227734
-0.02383716189892875
-0.05557103277709004
-0.05500587520081262
0.03630146527570597
0.07530268699808189
0.002432001563373684
0.03177376852336763
-0.056257062893553936
-0.0737650497919956
-0.008807611568261176
0.024132346135668312
0.009012442548041587
-0.10093622751922514
-0.061535957274710285
0.005866595713723947
-0.030655675381932302
-0.09384530551435837
0.05767732194612799
0.04916447792416962
0.022483625868589412
0.03587111360103017
-0.08568770590851242
0.011936017478563696
0.05046573125307202
0.01251274071127698
0.038432400141359305
0.008990852593761754
0.057218231428678185
0.02768389867080161
0.03179309414943116
0.017507804657448788
-0.04887965063462576
0.01717537410835908
-0.028731687904698374
-0.06769364770703014
-0.018623949052633603
-0.02553466102264522
-0.0020451828453241865
-0.11663257952575708
-0.007196064519841303
-0.040866738926220766
0.05344318739063199
0.058604212174645225
0.017366072226692394
0.03593843155205839
-0.04214043975898314
0.07888887948892069
-0.02450881896641459
-0.03320577391427814
-0.04269082309963557
-0.09269905709287894
0.06728346761335023
-0.025177084475078063
-0.010311398684009194
-0.04198784647620903
0.07735587111459358
0.024507780632187216
0.05600319793328911
0.029539800472545376
0.21777627861023707
0.47548674493409204
1.0144144604398804
0.5160934565851965
0.0496379806220469
-0.043414507431973406
-5.3588820826469046e-05
-0.012527307271729599
0.0556942419998544
0.014701820264220644
-0.004191527792815975
0.047553434302302716
0.0276464844420444
-0.022320310437122754
-0.01405047638119145
0.014134119876409973
-0.03220717182072054
0.0381245806843164
-0.012262669167201711
-0.009446798513614622
-0.058456509708900886
0.08906701645065747
-0.06658712639326352
0.048895441219496794
-0.023788763137173527
0.03436623180784194
-0.12378674765925153
0.021500528493912284
-0.010711274044888287
-0.06231015291913658
-0.03478688530841972
0.06477346117491724
-0.00404574712988644
-0.0707387139746336
0.1063065533951191
-0.00256843585339109
0.01664539301126373
0.0011150314128419412
-0.017799298837547894
-0.0038091857877464957
0.024383908651347805
-0.06558582240270065
-0.0299186012405321
-0.09990564915375694
-0.04130128187496871
-0.014455508169709126
0.05446666769050032
0.05355230829395882
-0.041472926095301385
-0.012072265643990592
0.01888098561717469
0.016029036620078062
0.032292675031655046
0.027212874139639767
-0.01113827940735144
-0.0347799143685695
0.008553469815452656
-0.09003059842400199
-0.05139075269538762
-0.028777383696985234
0.10027740388204748
-0.013851125701530062
-0.08106135609830273
0.03309732576886172
0.037020682474259686
-0.0022421825331090705
-0.026486648266835694
-0.02804025763844948
0.015106276811166467
0.019492993834466232
-0.022536301622495897
-0.0007360137531204877
0.036729094567852894
-0.0025007815052078878
0.003164463108179012
-0.0012715817575165314
-0.03866101179279582
-0.07177141255041695
-0.04687385609606987
0.07053989249142091
0.00781728462802777
-0.02864161522384357
-0.0031574456694028774
0.024964188406828115
0.035406501905505115
0.021601990504172153
-0.07042218720691151
0.08949032887639265
0.0051673569903778645
-0.02237196554464593
-0.035011238035801494
0.029748416121627014
-0.06268984793725313
-0.010072472768023187
0.061229502669169246
-0.03810228306311093
0.011658155451053425
0.10296082614385159
-0.022978179473862954
-0.04055385279324391
-0.005050159032239744
0.036257007757396285
-0.12908064323509266
-0.12482467244101834
0.006802799406680111
0.008129729072582276
-0.0035413541533547894
-0.07650621784643899
-0.015846109139061156
-0.03497490277690477
-0.005053414500405027
-0.11033973178346512
0.04342344260507972
0.0033593214372960195
0.028290727447942716
0.04369972854131073
0.038680943229759575
0.0434688586958515
-0.005528910750008351
0.1000829799885928
-0.0782421073772995
0.015722822175723662
0.005496669668947804
-0.01051816601749532
-0.008365223699092515
-0.07806865667211216
0.045811255131224554
-1.9922056368216552e-05
-0.06050096774725355
0.04461284072563429
-0.07391766056589075
-0.01644195126425353
0.039214729764636885
0.0847631578017424
-0.12470735648571495
-0.009312022177705478
0.14734734378331757
-0.0068799744846601675
-0.024818145414599854
0.022759946008881895
0.13102535006853464
0.10774418019769105
0.0474872474088074
0.01016784294177199
0.04132054098886795
0.0023649664957507213
-0.02957081678939646
0.036817708015765185
0.01655911915202357
0.018970547962541304
-0.011814067367349567
-0.021374955378353717
-0.010549276859120112
0.054813721073306745
0.03426551533264402
0.06697904195674807
-0.021579878884185805
-0.04660130226416748
-0.005557061269788597
0.024258530277820947
0.5149640451921452
1.033969292440183
0.4824024200113149
0.0729856334582766
0.03429205253497904
0.02706832001894226
0.03282658214653158
0.013326675250015994
-0.0578619920379582
-0.08294036896058624
-0.04074663583247083
-0.00621002017837197
-0.020035004516323743
0.0795907964301858
0.07220311137854413
-0.013653421857379354
-0.018418918138810105
-0.004196952705748351
-0.05472158231450435
-0.06976539690331421
0.042420437101941724
-0.04919331622631652
-0.0031858716664298495
-0.05946535138823966
0.026853887323505687
-0.007270127483944723
-0.003370851969423785
0.12409720983214596
0.027716799756342732
0.0303025247038977
0.04921316998318454
0.08355452723091814
-0.07015726669318854
0.12268486347885593
0.020154304625402797
-0.01794185674271381
-0.022711761784060796
-0.08887447261026754
0.016908136077572126
0.003711676588673152
-0.012945303092469752
-0.048482310383939
0.0298209048452073
-0.014170403263629061
-0.07809593258368351
0.04707665369553823
-0.07509515347793908
0.003868878261776973
-0.13579699050742847
0.0009808577965334966
0.016019969809230945
-0.005722534665740681
0.056347892975640815
-0.01589525478681846
0.016351793730657375
-0.02423169765674324
-0.005768194533436827
-0.003660763314162347
-0.020499811883442087
-0.11776378965752649
-0.055117499551011875
-0.07201053526638729
-0.0561403930308411
0.011999125135669614
0.006775341990129873
0.10896078487073216
0.06921924203402156
0.0017982179601226278
0.04519113216468615
-0.016370197392868293
-0.06461507721626968
0.0019140639517750012
0.04052906444413811
0.027970541172715652
0.10035381842584593
0.049782425220007115
0.10612432419964152
-0.029434580103051985
-0.03378317098844865
0.007428240269835153
-0.017236808202592678
-0.020405307778209886
0.0013081110590170732
0.06668381441206891
-0.00861301479461113
0.04996466528410127
0.04610670395228928
-0.0398459876372697
0.024052155358126534
0.05990953445335452
-0.07957856767277319
0.009096921653178514
-0.08076154114297246
-0.04934732076148873
0.040116905153478516
0.07429637602369299
-0.011952994753044066
0.020375675477721934
0.020766149063683292
-0.011512117524438916
-0.01677176068199051
0.0037247368589663544
-0.08595151457545025
-0.025029845639203508
-0.06834576587005613
-0.026504253657483625
-0.03673891481038433
0.049356326109647276
0.007553500875759383
-0.028692696540306418
-0.024780637625277088
-0.13092559666486123
-0.05286244427587942
0.02730856217046916
0.024558614236180804
-0.04032490137777571
0.046639563200344486
0.03542101120718439
0.08009567345418062
-0.0665663843309329
-0.008334723999181842
0.007023891672634265
-0.07252123937582076
0.023717038084109264
-0.03069684525546823
0.0362484842917516
0.03049404155764332
-0.018239492630272813
0.043962528106297895
-0.0595155956758749
-0.046611800554954064
-0.01743803247113824
0.023104635372339144
-0.010263854510853895
0.012243082157601186
0.09283653461301639
-0.0052520268396901645
-0.032245047148665905
0.013557368269572313
0.041507623417750175
-0.025436922099018513
-0.0859516180521601
-0.015770928048706976
0.037531050364590646
0.03644376881108536
0.01998345044171156
0.05277325626385746
0.042068686769041755
-0.011038547070955534
0.00504163291990062
-0.005647946391505686
0.03617049629087826
0.023622996516806022
0.06141718796107831
-0.0001322785003311463
0.009004552472058945
0.10293754982818727
0.5523158545656567
0.987386506844822
0.4435236744572485
0.11534701079866268
0.04145564713156094
-0.002803257210806706
-0.0021711345600799853
0.01911368264408054
0.002336042442771794
-0.0014679320659281812
0.038975262857172115
0.013423856179176167
-0.027168078732461465
-0.05502858830087063
0.013732626353230066
0.034011148879115514
0.06871790595815566
0.1269800694375713
-0.012849233441128323
0.06772861792062437
0.003527076134494918
0.017339380560432084
-0.048511397601673334
0.008914866835855849
0.027372017040139654
-0.02256933217506328
-0.0003708503242377732
-0.059995647982221206
-0.07793544555125798
-0.043388637062253
0.005413770938419947
0.030157707328668543
0.027644235077431967
-0.02690651277518949
-0.05538584648427687
0.008939298902456807
-0.02075477378462836
0.07061217792739737
0.035421157025577014
0.08105614823733151
-0.006894066572265605
-0.04241448955225161
0.0714903654944118
0.02417602961696591
-0.06915322390557908
0.013059699895042371
0.03663143163228393
-0.0542670279330436
-0.023176279964172097
0.0374854002784136
0.06369010446765302
0.01779433919422174
-0.06358865342442592
-0.03249365629261095
-0.0338312091399939
0.00454877355607126
0.07663947450061309
-0.06636539526308295
-0.007308176395194852
-0.029094713890200293
0.08356327184468317
-0.07879616273008408
0.05094562948723755
0.021554231863181655
-0.05709234307629937
-0.00023578677433400703
-0.07740121545617887
-0.029207558769738136
0.017665546599309946
-0.08043843960813252
0.00854336739717338
-0.014857220125402705
0.015099797735059076
0.0576500553251717
0.040672901954989314
-0.001600183068242164
-0.016525759721049197
-0.07800450094236705
0.001994978543219065
-0.06756454342179237
0.08314323270590619
0.009954108893858222
0.003093499779077058
-0.02526373025396087
-0.018347545173490316
-0.08853880391849761
-0.06876857867507943
0.048232884520135945
0.02145571338420323
-0.0005951903276410704
0.01633422491267104
-0.09597758979108917
-0.00852473975509098
0.0345965865089307
-0.006714363440167941
-0.053472717118266615
0.0011982676540888677
-0.01771540488747526
0.040573736130226426
0.011824580559771574
0.01593666918395345
0.02217946505135734
-0.00546239025281774
-0.052900089658864974
-0.02556409973314293
-0.0019714139223492313
-0.03543298403795009
-0.07441436320623454
-0.03693964275684466
0.02891256437809034
-0.005451048051805307
-0.018918011532404168
0.019154907971141968
-0.006686495909094526
0.06873232690686404
-0.009424090809333624
-0.09805798271360867
0.04397734490497812
0.02720426371317002
-0.02402272576915853
0.015634611944514147
-0.005287709578977869
0.020086403351016077
0.04179224993834565
-0.10219691554615747
0.038388387366742646
0.01013038570836045
0.02516576405900696
0.004947550742103187
0.01790570914857241
-0.0036343952359976146
-0.04952526736978423
0.07487957365934195
0.010365410242816361
-0.06189539449504029
-0.09531362294582726
-0.013739201464457677
-0.04376452736554454
0.024933973133594304
-0.01576700078216851
-0.024206143085387086
0.03912415167506448
0.051974233935468975
0.06316459280222493
-0.04158543573495405
0.05262348737038779
-0.029942906088893974
-0.10755882658582872
0.003770534027352376
0.06650751328825028
0.00820806024675405
-0.05138887551007794
-0.07479891947470084
-0.08389231109318215
0.09508100401994704
0.4243693854733343
0.9332180333981505
0.5576038768354108
0.09294727407601397
-0.013348355240838237
0.005401193660474325
0.04324254074355639
-0.024986981437427128
0.08829572914494214
0.004196111687275611
0.02735353608334945
-0.004295018494376741
-0.07099705445533248
-0.025629660067294075
0.06440127618868569
-0.02656613507181667
0.016409575781778978
0.0069046968034649995
-0.054355178389196505
-0.049795451585591184
-0.015580503695819786
0.012709887239594195
-0.030178378571825676
-0.06189319113086522
-0.04667349688270123
-0.08286191390157535
0.010005983856133431
0.09424438583170693
-0.029101609662164726
0.046352238404013604
-0.02265524983724637
0.07704540236496964
0.047498429892628036
0.01877356154125461
0.014152830833978529
-0.01027393397448117
-0.01545119781395602
0.024137421266580063
-0.04444008299505017
0.00943174610791355
-0.02002746179062937
-0.03615683578762941
0.02610072233587889
-0.05086708440775102
-0.04424586050249166
-0.036008912248916225
-0.06734054409674889
0.06348901333032378
0.0030507828524304467
0.06604519894293663
0.08549755254254715
-0.05356515459614759
0.024175253542245298
0.009997304424762835
0.038222159654421335
0.03215671113237149
0.07742223451301228
0.005264939841865876
-0.08674498777911488
0.08359666856314481
0.05462774556655651
-0.04086284077381172
-0.1256545718514492
0.011900807299753676
-0.004843815452775253
-0.010263662421701222
0.010235145020958937
0.02203421706055386
0.08239826022132979
0.05372497635490066
0.07185757069614902
0.09620890233746257
0.0067711522444092636
0.017276823699991267
-0.0013113213356562784
-0.17207298825538675
0.13377668529269224
0.04237834975407827
-0.004443138792975483
0.033119085751306156
0.03005785674629105
0.033233369308878845
-0.00657621023856212
-0.030618523512886117
0.03816030229530143
0.0026757973178049383
-0.01963298477102403
-0.07192792685574102
-0.03008786474196942
-0.022644715527776735
0.007687469433839931
-0.030528991037504807
-0.04617053055209213
0.06658042078967148
-0.12563506241553232
0.027426927454252344
-0.04150260950242648
-0.07555302808099376
-0.02244327219262049
0.05320242743589333
-0.04228571443583259
0.02252764866505051
-0.07990796835490659
-0.019293412969385002
0.018167932150159324
0.010683787193661072
-0.011644875842151235
0.022422133324766495
-0.04892292923692382
0.029668880113147847
0.03178194491920995
0.029699749902394997
-0.07813594387431926
-0.05398923931159098
0.06831935316801423
0.07567278508234516
0.004523092099473254
0.036861027142166235
0.014519200098659236
0.016089382192272857
-0.11135922681776496
0.05999961327145346
-0.030575462741618622
-0.06079385500014194
-0.06222674694491553
0.027612074594451114
-0.01727694349715583
-0.009565737868122273
0.036537202825759334
0.0022945439212864022
0.02007365118616818
-0.04744087293327089
-0.039044995791353565
0.057811760138762415
0.04143123761623846
0.033260798309067634
-0.01915380496394964
0.06405590267179949
-0.03218001990041324
0.006017069019159053
0.1027008873491033
-0.05229252974713849
-0.007530480359360051
0.024260213183515615
0.09226363080043433
0.07964916209516758
0.02207107478086498
-0.07316061339204065
0.12835215185414278
0.05755976113768122
-0.04511643009703248
0.016949128184230732
-0.008104895127212743
-0.05080257422352355
-0.008933885324748375
-0.015678445340953553
-0.0189428727369544
-0.07557237324860808
0.024024527593637445
0.07061182738810641
0.5163218927309634
0.8979057637385701
0.5555594227392952
0.03842125700453819
-0.028335119450828252
0.08027571238845571
-0.08891408084833886
0.051344864228546984
0.05592463695997501
-0.0314389830427667
0.050090725062012356
0.010859305483615501
0.07437857909172789
0.06671498697079584
-0.07940124767110962
0.05009910831805529
0.023899989090081487
0.07162325191050817
-0.011055748060862743
-0.023340350690295057
0.060735811359438834
-0.11451055683785075
0.01748013867256533
-0.00670096203174042
-0.06453855912556854
0.07156001998884663
-0.02986986263852619
-0.09493302825721504
0.018750490717481805
-0.07452481684804525
-0.025648747076669937
-0.015280419601061083
0.11758112117970179
0.01116820477660671
0.017615411288005586
-0.009651826619529852
0.05672506535938524
0.023182180797755608
0.07905705878313651
-0.044982978888073316
-0.07602377865145737
0.007299378977705534
0.07718481824714796
0.04728433111857288
0.04075028322226243
-0.11057189281012068
-0.03484066101338529
-0.015413305395546119
0.06615271196846743
-0.028936496794339458
0.08952124625738202
-0.044202822818519505
-0.10072250095473681
0.06082396392850083
-0.0924894602625009
0.020684549493439588
-0.0399109042065424
0.05559595131349926
-0.05825529070172997
-0.004513698615271031
-0.007323446521805653
-0.014147320245317146
-0.009438728254493437
-0.015412500834214025
-0.03662262860512094
-0.024937914246481143
0.010139218152147588
0.01915186473534847
-0.016049808611282964
0.10587928392596996
-0.05851645744546549
0.023781881653245983
-0.047041349532958986
-0.08312879605158645
0.047187948216641525
0.033689257044480274
0.061598357606241494
0.030397133923641868
-0.02541362809303473
-0.04829059153345542
0.01991166156796916
0.09359392357334867
-0.05132726288129891
-0.03431255875596414
0.07018835453952826
-0.013454681377382663
0.012486824288917054
0.08226710158918824
-0.026382739824483383
0.0031240392447010393
-0.01451287001748822
0.10724497986348135
0.010626659086743918
0.025248704739851354
0.030041548144144115
0.04261903721514726
0.06449646277989173
-0.0286552842000382
-0.09966574141990728
-0.07729777015401079
-0.08667308991400155
-0.03642954372684304
0.01757187646288951
0.05012422835193678
-0.01414332510671415
-0.0411536395215045
-0.017303307978184534
-0.026919991501647245
0.053414679080131394
-0.036315377778432266
0.11308197610285348
-0.004538347059775708
0.054019633075643426
0.02340262678577547
0.0541673333737778
0.04044653584726605
0.07579442527200489
-0.010265726200923796
-0.009676728810990999
-0.014672609905986709
0.01763629871783397
0.01250730598306672
-0.01830337731768394
0.040991247443085105
0.02996545299429364
-0.021856734312513445
-0.05614891226678598
0.021766746355977473
-0.03147866237917081
0.0105786202937981
-0.006183384615804957
-0.06295912610968189
0.04031922377279975
0.03132169506233123
-0.025238255103228736
0.041901108100204996
0.07584643518828632
-0.03447558634484643
-0.005059206634849719
-0.10816079508477482
-0.06885788691541002
0.051407300438729736
0.01041729878640915
-0.06583270578947123
0.021806847110715077
0.09028193764666102
0.024802363069738133
-0.022644701282341483
-0.004533594662686175
0.11144494571673802
-0.0861967715730961
0.05728588095748022
0.031758043469770424
-0.06446329920713953
-0.07494869491634075
0.036582223050792784
0.49824520501775266
0.9259778014187842
0.4098760483378566
0.1442229423845468
0.04612472720197988
0.0414408951526577
-0.03594417365894845
0.00827925917664016
0.08124817972821567
0.042514933010780305
0.00811983266667143
0.016822117331630766
-0.02301906671047851
-0.0004875434552307625
-0.11349498523303454
-0.026613511904644883
-0.01801079129920442
0.08101212870139603
0.045490762893559834
-0.03035061124612587
0.01669364168745237
0.05749599762727205
0.00035851022001114546
-0.07589555841176754
0.04778263398947308
-0.051799647279455276
0.022057559121685937
0.02097293383470132
-0.054889723513653066
-0.071505271569657
0.006302958428470475
-0.02112269178103112
0.025407632768032342
-0.008290041978467302
0.006281082848280217
-0.022931641770954348
0.01418161949158913
0.11882123182752456
0.029147181714405324
-0.013639263964610931
0.07832765854544244
-0.03892816957229907
0.03196991503420109
-0.05581432201155128
-0.09647557930962647
0.028963334703456068
0.04087581797699807
-0.030210574162788502
0.04043901969017478
0.10662247907000638
-0.05165123762034404
0.022865196556843794
-0.04135340758960533
-0.015324443275257508
-0.04371298229906151
0.04816968548444341
0.002888453347229565
0.0008655125474181102
0.0039784812700886995
0.00897133049305986
-8.490153731569748e-05
-0.09569793626462403
-0.0025418964531664623
0.00044832920075781697
0.046907081469036216
-0.04180105571762344
0.0343808630379648
0.09972924255741238
-0.026780033458871713
-0.10680355371358663
0.016138713050600155
0.05909570959115115
0.08146609078136226
-0.009382428895939727
0.029967776343766486
0.033552544830627126
0.03541635457491517
0.03970408997357862
0.012463831095502696
-0.03648614815434706
-0.08704480459158769
-0.013010518482280645
-0.06874541253368445
-0.06397727020042283
0.10348876453598257
0.007815243486853614
-0.024346718460713446
0.058552045275147895
0.0075139799069943005
-0.09465469675354489
-0.050029431782306844
-0.02283196454018894
-0.003277543956940162
-0.019359429776877636
-0.016987013854769254
0.000133039214993656
0.019301748553508764
0.007713491878359329
0.12568927523026227
0.038302383004367946
-0.08493865052490325
-0.07463784300590551
-0.0182454837144018
-0.0571687605178822
0.034746751010006224
-0.0016309951285845025
-0.04875539446136246
-0.002905258383707159
0.03659944763553604
-0.003816674320342558
-0.0420574706429689
0.02424572790547756
-0.006917345524782236
-0.01384858094288531
-0.07633697546885859
-0.07357888803600392
0.09167546073569499
0.06705197057255606
-0.020247821025475208
-0.025610766503610695
-0.10338694204602479
0.0013114214938395406
0.01154360011485542
-0.013152735076252864
0.019455771189131815
-0.05486188568677866
-0.056642539734406375
-0.042951286077642425
-0.019045544284745773
0.023965601444910386
0.04062000355641502
-0.009094660805792073
-0.03800609083529204
-0.005796571068805448
0.0927315966157134
0.003480749615451048
0.1048700506845862
0.05913195208067062
-0.024962938275341892
-0.039513002080194586
-0.02320145133758946
0.024024082185156115
-0.08747243972081155
0.09217877827327076
0.057111048589032154
0.0022352305828584828
0.04134410784693227
0.07819804829494652
0.041876701142389026
-0.027320708499219745
0.017352970710296674
0.01729486912909035
0.03432514149432799
-0.06333461719163193
0.14196278654147215
0.49096230913737804
0.9347161290380186
0.5547131829153199
0.06210713599363944
-0.00852689019394243
0.04173078643054228
0.03876669848007873
0.048946825762135646
-0.017280821625615558
-0.007126638291376987
0.06758006485461619
0.00792507408347662
0.011990814386359403
-0.0044099912685266396
0.04523042214193526
0.028534365187991947
-0.05567068219850163
-0.027032264232176487
-0.005586490929886754
0.055074169579947554
0.028687565697466545
-0.0500023039513552
-0.02578433041968043
-0.003676382532070885
-0.06752446607955023
0.02945933059954624
-0.0316528267036899
0.04421929532620031
-0.001195081872161463
-0.024609280957180416
-0.014988132685246836
0.06384374613591652
0.043262651752109804
0.04241348863435243
-0.0010099441404537793
-0.06667276421311513
-0.027420244847139827
0.05360771190867883
0.03427797213948957
-0.010730274348017805
0.0038775684441465885
-0.07333198498819803
0.02045267287369808
0.03408081379873303
0.00802074746232397
-0.08412987224174155
-0.05985069759312298
0.0494996718564292
-0.017464810720240167
-0.04167925228709274
-0.10211675959661033
0.03307861945556256
-0.024690530224476964
-0.0391563836255516
-0.04778509390026957
-0.004936501379022441
0.08984368067953662
0.009096161146056596
0.0422106805584411
0.0386576929654763
0.03983344938432617
0.07810747005474306
-0.09428387009871454
-0.035677272001708615
-0.0001791226545667066
0.11663826150553175
0.04777009513448262
-0.12534865347458948
-0.11188167583992091
-0.05460373814613321
-0.0027946371065132405
-0.027132893959845736
0.057073149082625944
-0.06221188377897752
-0.015053027390610913
0.045181915509016124
0.07618841876348813
0.005163818819617947
-0.020778592297817068
0.0598588215735575
-0.002138760054376556
-0.014875121518845114
-0.09862456257366659
0.0010189006499283892
0.01427059968753501
-0.03310011760370871
-0.10689859868308163
0.025013982832038685
-0.027189268002157492
0.025875892359656268
0.008531724082002957
0.014291733646344973
0.022880212094637867
0.002717750240558118
-0.005756798232306334
0.08358238740871883
-0.02819661185351891
-0.05267896628800957
0.04954327572422112
-0.03002530744444773
0.010744575967704211
0.062128617669194974
-0.019802331234973502
-0.05862646763350215
-0.03712143291873678
0.012858894732152158
-0.052352235974215434
0.008120760034758345
0.052183735108766484
0.00945157906867482
-0.013209662600995008
-0.034788728844238136
-0.020200066199904575
0.06384976834488006
0.028361005356612914
0.05077259865683777
-0.04252499876283966
-0.05099830325266258
-0.013974335275454606
0.008667527098947135
0.044130646135698275
0.017122807636884653
0.03160214012376191
-0.004214985648552892
0.03818079944598058
0.04203449832883714
0.056683762392975894
0.033433152381998926
0.12101572803795863
0.0014849402423093895
0.007664494910487141
-0.023339379451307964
0.02071616018952909
0.05443690498886437
-0.0318879234178416
-0.08035809803899592
-0.009895873093229632
-0.047356936554660195
0.0699978229790557
0.019600668661208857
0.0714848337595352
-0.0967019430670902
-0.05313366864272522
0.026677981536678354
0.01315713170116405
-0.0775415390653231
0.014253674039422402
-0.024662446003586427
-0.00024852883849167234
0.025236606220330873
-0.04742701971900214
-0.0157564770851319
0.08103007814091441
0.06851873522176713
0.04241106149544829
0.0012720110184151904
0.046768920104490116
-0.10326743608466869
-0.029988672947240943
0.12422929424048204
0.5387517153853852
1.0445359946828736
0.5013681521545985
0.07647337478416677
-0.0037301938636845923
-0.025832981597840907
-0.039482093375608214
-0.022864055810739883
0.01171539093598732
-0.040665301354131225
-0.054331513489657916
-0.0645176085333658
0.10833895862086769
-0.027056224095436805
-0.010037888682232904
0.09056734278381723
-0.06320391834520529
-0.003177156750734985
0.07928575710422363
-0.060668114087489705
-0.0018003420592403487
-0.0061672846389935945
-0.04138820832896131
-0.07878324362723531
0.015291273587677063
-0.03832108591062522
0.05426406618496955
-0.031844935244004356
-0.014741447219102947
-0.00739518713222588
0.0193442081880469
-0.07771126993589361
-0.012641730791604687
0.011484498251281896
0.019691115917310802
-0.08311581053971959
0.028901897445448146
-0.02473205506616
-0.0053256933917171225
-0.05531547145943229
-0.03796086192367295
-0.03710709336979422
0.04896416932779876
0.02529220833500817
0.0006871731996275876
0.023545409147386377
0.06866384330371375
0.03532760182702979
-0.04675384215296063
0.02014782785916779
-0.046061958461463805
0.04952367578581489
-0.10264353242025957
-0.015685609578834452
-0.04623753919182415
-0.031609195598860156
0.08900299323615596
0.031369210962358375
-0.02660977781471309
-0.0677806537922468
-0.020815396171029114
-0.10166383966849223
-0.04511801816050985
0.03534894507583326
-0.055414268560520785
-0.0005857314829825443
-0.03758324594561613
-0.0063115202461279
-0.05078078902986375
-0.024412362579265382
0.0540034445863838
-0.010537306425057723
0.0056613246929912864
0.04630406357948473
0.10679388118103775
-0.0008913393048849451
0.0172044621346197
0.00824180091993974
0.013510919442298664
0.11219228840293538
-0.058255556043967094
0.06713916749831106
0.05058202128957127
-0.012769145727350623
0.06154783564450516
0.04447399096143469
-0.03823687572695273
-0.06992782208984563
0.002869654328584457
0.01131861928344754
-0.024595979335859094
0.07210231467521319
0.007881466277992962
0.05289419341089629
0.01485242449252673
0.0006815732388462325
-0.019378101630283234
0.05483315552459788
-0.0645152575216675
0.06668301836947174
-0.04377902467768579
-0.013774329012896125
-0.1053239427196539
0.12172307090891324
-0.02889897469378478
0.021351589529095633
0.06277006580510888
-0.020646569135902085
0.009168687875867543
-0.05231065889565581
-0.049600180094573086
-0.03545953050225976
0.002148161910440743
-0.05307236744608304
0.03337752998190227
0.06151721589807461
-0.010443767894441965
0.007634653171775238
-0.072983858578146
0.0545600460654788
0.08017911844560917
-0.035077689575729556
0.040191323115280925
0.02602945985842774
0.0009198267598079385
0.10409071937017467
0.010898763767490084
0.016375059894708593
-0.010551911524129222
-0.056270907596957125
-0.024270894858980235
0.038814924753560846
0.013918356034040603
-0.07185089395706844
0.05349947356770632
0.020751303191907388
0.029458890252876537
0.057093987686372506
-0.07537098114917458
-0.07034093207489682
-0.04593433558354992
0.03816156466157267
0.07027337194739003
-0.0644866167099921
-0.05778232706253137
-0.06839865332081296
0.005723115748102345
-0.01916682741216598
-0.053622574035068316
-0.07428221640166548
0.0052418066369595145
-0.06914503849963398
-0.03922265639630998
-0.036590714111822235
-0.06316019817603628
0.08603154685631641
0.10138738724221114
-0.0411007521267889
0.5176875578823391
1.0751492899695694
0.5268173212113867
0.01068756538994911
-0.05067488222063874
0.03494018563664574
-0.020005135564240044
-0.09608371288558676
-0.11453982397435575
-0.07051778381690754
0.057623877286085715
-0.06552781935610774
0.009602083464593847
-0.015239028428731819
0.03717746780643597
-0.0125721929981198
-0.039416257982393774
0.0012763505177913212
0.0016590236858885958
-0.013128036073925545
0.0542261514524497
0.05061816970453617
-0.06288928089260373
0.04578647824202654
-0.010499288038498415
0.002254874189368339
0.07152102064670207
0.064188025065533
0.014932985850664224
0.001127193639512537
-0.03175353673646595
0.05610620920631894
-0.019922549580158017
0.04366917998702671
0.011704199977993488
0.036182644728455546
-0.025917182768691413
0.026696008074873573
-0.13594838176533283
-0.015551686286193765
-0.042502937538432393
-0.007829450673199675
-0.031162863259317847
-0.02453030602461099
0.033535795907407
-0.03542529757477888
-0.036544989404220754
-0.035728056996706725
-0.06431036124686533
0.007274502548797371
-0.03375544406846969
-0.03217418803748537
-0.010748819264713008
-0.05700462203773953
0.02744411270034157
-0.008589933680223927
0.030099121639934296
-0.06374860646497965
-0.10405510069419317
-0.011789600850489254
0.05205767718260654
-0.10185430704263287
0.05213035542835699
0.04674335895099107
0.021495848227905335
-0.003062351949274639
-0.03628096623765925
-0.0009494773769585151
-0.060683645016249455
-0.037673938866757774
0.0014108752058081052
-0.02687912338537826
0.03747850096667045
0.011979695304146838
0.013943270153792361
0.04775808738042092
0.052088609622385706
0.03410191580098645
-0.09603379126317191
0.057619539949380016
0.012383685081035968
-0.022784380576921434
0.047182198176168956
-0.0008886221048089595
0.04841895151249653
0.046042478590397035
-0.007260832348845114
0.025970516929074563
0.01757161577203067
-0.022836749988362062
0.04592462889201364
-0.024551642246962792
-0.05355719765115487
0.0704767527094636
0.0159664147612803
-0.07875325321235524
0.008925822569889535
-0.03244616547622316
0.04000497935261803
0.0026031716641603444
0.08692766892415037
-0.024545368937158214
0.015811156993906398
-0.07845852471836157
-0.04542455803870288
0.011154544246013084
-0.016166482323781428
0.004380956307022468
-0.060929250332666066
-0.011675212683321404
0.09796929464549683
-0.0028657458534183168
0.04535418288924265
0.0037355579575764145
0.014185498085351488
-0.04734058756094784
-0.017709609798454866
-0.07041223307269794
-0.07567304921781468
0.009812795411170491
0.09790821836613933
0.08436298352939975
-0.062231808102112575
0.07198618734461014
0.027918996639920615
0.10443438709825947
-0.10100526838331195
0.08825253313401166
-0.043500106917862214
0.05929613122810476
0.007694384250083998
0.021878434952617796
0.0012507435484895608
0.04067008400610389
0.08267055767876613
0.0031528585958194594
-0.064305378905797
-0.01120433033894265
-0.1045763954027445
-0.14074083848771854
0.023958019407716035
-0.04693619476744126
-0.054288743416090995
0.0130332125951322
-0.08710899428834884
-0.008698516168002253
-0.01468550602180825
-0.06799286333411636
0.07914245829879593
-0.015835157733005048
-0.036166613001384185
0.06116477939608546
-0.0076891618403827555
0.01579178518411998
0.07464054720319238
0.4782914407453436
1.0337881284476325
0.5070374632624328
0.13463286217629483
0.04757656931866244
-0.022956561019122673
-0.022291998122817142
-0.12880098383565244
0.014119422903793156
-0.02735169708955544
0.04923700567246116
0.06477955857615407
0.019828376441894627
-0.04455643621977412
-0.0769441691266437
-0.060545342561616936
0.05361209429018912
-0.015481875342839846
-0.004064327451373013
0.011857543881719678
-0.04462493889020938
-0.030937727894679624
-0.011616246433080804
-0.00378899699208871
0.05173881766356464
-0.038348133540579706
0.0010698056351618405
0.015321681842263058
-0.06951446762448925
-0.009200404979932053
0.0585524678187639
0.040070117945470406
-0.07514166002501305
0.011024532076436843
0.05410543090499403
0.0864589990872616
0.0369065495426423
-0.03223836803763
-0.00688682903545195
-0.07849604569736315
-0.060661018932089784
-0.007356399227223039
0.021664013857003922
-0.010885269969672382
0.05501196683926238
-0.007115872637054179
0.08251955717545711
-0.06380855417354385
-0.07502892188569538
0.057142332416624246
0.040636150341454756
0.11615955760049042
0.02894923765651665
-0.03699230058637183
0.11824458328505334
-0.007600181834464124
-0.08658261290362702
-0.03452258961772741
0.008416937895532975
0.015439093547573564
0.03869937610947332
-0.049132892837163385
0.007141286305103051
-0.0696603105327246
0.03240795644172914
-0.02678055063231884
-0.01904483614503734
-0.029219871799380667
0.06526300729410224
0.10188677248142695
0.025107856174573614
-0.048616820590516086
0.11182830249066651
0.018653271542216587
-0.01129401657480203
0.008588897775708463
0.0665350758430955
0.02410235985958044
0.02215166193161068
0.03640459739158246
-0.04556560951278076
-0.04716649861151768
0.023508674124278362
-0.011354631103228752
0.04655625923606917
-0.011968715272781963
-0.10928391679168399
0.042572443898505466
0.06255318836837596
-0.00806508318977065
0.06448024374346883
-0.042915713212348536
-0.01777672613042051
0.06930616390838733
0.0736709480481402
-0.05626593767850333
0.02602233441066458
0.03478085846609546
0.01373137703607153
-0.04235768323687991
-0.05410270234011038
0.021460187425576514
0.07572909790536687
0.05180945693286242
-0.0031544585084291588
0.02741162617480456
0.023787650189674842
-0.006147703803703657
0.023163720276893535
0.0727017048815926
-0.04229996702254071
-0.05351832893439765
-0.06937881467353844
-0.023965501124724044
-0.05481081213332403
0.0054413311652997355
-0.08745611659235397
0.036101764949313324
0.03592874576549284
0.02788497013308326
-0.017133377268481235
-0.04912176547298169
-0.04177276523029047
0.06220271436432723
0.01608253915381909
0.025249297671906243
0.07311325087628617
-0.004541664197844394
0.01213595540406899
0.044793394433340135
-0.005574406990519112
-0.02723868777205777
0.02366383137606262
-0.07964946874473894
0.22633919466301367
-0.023740074859012035
0.056707229317185005
0.020565526753833944
-0.010923157064413368
0.03678291506419615
0.03104381884898917
-0.007972940884844145
0.0050809133104203
-0.016873099956244534
-0.025504836009725904
0.007312842197075524
0.056036355362932555
-0.04961288297883637
-0.013991140782244772
-0.01744799748346895
-0.0039812760327035575
0.08654472954585778
0.029258740071487356
0.03923314245931373
0.48906330556723027
0.9876593988648068
0.5350675710957364
0.14052082826571377
-0.005915433308984212
-0.000481987774517351
0.048675736758214544
0.014267901198069786
-0.04674378711673264
0.05620100461718197
0.0492785365604702
0.021820289625595745
0.015119047205350492
0.01587762380068434
0.026779093355338818
-0.06994846663206383
-0.04625444106226444
-0.01406252555145924
0.05211676168032077
0.039860736125617184
0.003500430526132763
0.007540405368589902
0.09065164997019232
0.007668670190860483
-0.058534730019607406
-0.024112246309155237
-0.023104554241044937
-0.09291605033505985
-0.08712153085196402
-0.057267384094628886
-0.04179865080724864
-0.021779845280490873
0.07600187223702158
-0.046458729452718776
0.07196668777628447
-0.026109651625543396
-0.11013730627947452
-0.034861937559161886
-9.219270565700917e-05
0.07945112711418573
-0.012713559343825488
0.004724627261934077
0.1508467325060716
-0.06287614664344086
-0.002969742764387287
-0.05395064816665375
-0.06380147417124607
0.05258582228572596
-0.013021224398127779
0.033719100897210315
0.03198780368119122
-0.024761374321947104
-0.01184658138985377
0.0799042928696871
-0.05190129150887895
0.05214625170865329
0.05633464773552269
0.06478726370512883
-0.0030092893253319966
0.025951235436300252
0.061472704832335634
0.006702618514275423
0.04456798009265277
0.03377274426766226
-0.04113446475052973
-0.04898962285120493
-0.03418099367610549
-0.0663487377596537
-0.037893701269411266
0.09127515982613613
-0.034203669897324235
-0.03245616230747361
-0.00599411671196461
-0.020991606365102392
-0.00611878328809088
0.0034002496579914583
-0.024668902336909142
0.014717647964671213
0.07021261561158397
-0.05853776838947731
-0.049349295766608584
0.0381179328415628
0.02330603311122519
-0.010734654947284285
0.005139959487804133
0.03535588087531354
0.034716576634026754
0.000809443772321857
0.02352201140966984
-0.046571435629536244
-0.0359769065643751
0.06113496016436715
-0.007860200310360525
0.0007133430775676648
-0.05163953991718584
0.061197081474368864
0.018461289179880373
-0.01557815639274125
0.06924484203590403
0.018568079624840566
0.0419305687872078
0.0884833800996482
-0.08328283272477373
-0.08382138898093247
0.02727764677460295
0.08462247495870288
0.028470871903256503
0.07254187027922358
0.055137761261970064
-0.03950099101635762
-0.010921803953243374
0.003413481000362966
0.004244230967359298
0.010653964779161758
0.012321906037744221
0.017480247403549354
-0.06859847438226102
-0.023590197481572855
0.008289249762057868
-0.03951209841257705
-0.0036476012957190277
0.01070878467593416
-0.0455991445562281
0.04759544993291875
0.04143179793678339
0.025241779608356926
-0.0463849921186217
-0.03571958863906251
-0.0026779255730846907
0.04603121517059253
-0.03486654163231647
0.03717534090608073
-0.0007143167773438762
0.03760061286455876
-0.006469970111707896
0.008864131421884917
-0.006405030425129779
-0.010950498980438504
-0.04463977177336609
0.031350207928877626
0.09726585361067325
0.0012565177340930027
-0.03520228548549778
0.00233670073949346
-0.010961578260414807
0.028539547678693246
-0.11157724602246895
0.09700936160100596
-0.045774135713838544
-0.02390784682890775
0.09446549325252762
0.036992690943144266
-0.04249862392545112
0.06490042542712506
0.045765757506005735
0.04199451937011388
0.055882312385950365
-0.05379964600693491
-0.026830680242285954
-0.013466669975065832
0.04047001227215102
0.11623773274748728
0.529125252355385
1.1201386914943088
0.5557451207791906
0.04787877187978654
-0.07281663709030388
-0.03815035621852039
-0.012388751320886293
-0.055174423872523116
0.001440271370117489
-0.03610275472039812
-0.04154295989780516
0.004668684548115104
0.05897266590928751
-0.01539435630387154
-0.027187507138091628
0.008159551602370346
0.04028831714367932
-0.0028660704793743172
0.005136529698893688
-0.0733909538939633
0.020266441093656537
0.035048356263129535
0.057345499649343004
0.07067765760161183
0.02769017958346709
0.0032288934741591586
-0.086353917339676
-0.043151425333508873
0.0915993988217916
0.022560024693439457
0.03708230254651773
-0.025488256489167832
-0.03746955964014202
0.003450836045455337
0.009400819453440817
0.003713865923826505
-0.014906786891214028
0.005348602473591082
-0.05135290920739171
-0.01536614520896491
-0.03669031986651667
0.010856512115617348
-0.0001575806312077391
0.012739228275602067
0.06406036808816759
-0.06772886407222554
0.05321433875609456
-0.03474223399754371
0.03863974393266183
0.020114310238349024
0.030741875031509422
-0.023831189532880905
-0.0020706758275469217
-0.01771886699700546
-0.10660769057194269
0.047589102823242295
-0.02721835953272543
0.029028903015851305
-0.008147474606827958
0.05100411828323989
0.0029503971012765787
-0.06067789865372358
0.015203418282783055
-0.01869216013468341
0.03795840170091205
0.04790851421370269
-0.06476398453201938
-0.04670366726212608
0.02281874409314318
-0.03585532088790587
0.023035076237941307
0.036897375139821595
0.051765026170641965
-0.01909780344307861
0.05704154357747411
0.0023502605965801202
-0.017148964236506102
0.04205064089254746
0.018012091511699573
-0.00959746056994751
0.013645228623713996
0.07301350183842727
0.010754317464953
0.09579841943036811
0.026493871952243
-0.05496032257232458
0.08224295667279034
-0.04826938952013143
-0.06558158974996976
0.02431884951761333
-0.08119653198396141
0.10772454575345525
-0.013618510443036975
-0.06870198702754698
-0.029260870814813784
-0.019640981359920345
-0.005981143934926413
-0.01928542844867978
-0.03988001593463037
0.1303656412449404
-0.02603252793974982
0.01413123569683417
0.07726041497435969
0.0434620144418606
-0.04740266957610412
-0.027461472437841673
-0.0308139163236269
-0.02806563255179926
0.004671543902473247
-0.048792325504953424
0.06092731941080104
0.018874374480049277
-0.04596022806292688
-0.03711495118986331
0.03149623943850321
0.046870779013906044
0.04925556724161415
-0.09700120154533907
-0.11015715832232237
-0.04344792355359114
0.040366006760237716
-0.04467555172782803
-0.04659008341571149
0.07626125750522614
0.010514210089808955
0.018547240167983776
0.03555710613031785
0.03875456013024853
0.05636766534393209
0.006631439675922822
-0.08302280411305067
-0.07055864190378291
-0.030712432245579402
0.010970233126031969
0.06411616493269469
-0.0006390198190234113
0.07257800506735278
0.01801036463877243
0.005572122626882527
0.06112284116583744
-0.19560579896694524
0.014596777177305509
0.031116868569837853
0.06766156115416684
0.003262232920089997
-0.03244251455866017
-0.02822475001718372
-0.004419639969040447
-0.022190573657522528
-0.019961365501475297
-0.03265038473668464
-0.02672289879030247
-0.0741343805372524
0.2014554310330462
0.5094038982064704
1.0304262788996776
0.5100609610558255
0.10539408237038177
0.029392270900295017
-0.018185107394959096
0.08021188532724313
-0.09837400291041891
0.08225764628564469
0.058889619070064674
0.03237463676150767
-0.00819153752775492
-0.08718900815218139
0.05924848468050045
-0.009674997198628597
-0.0636594763522607
0.0386765840692618
-0.09019948645922254
0.110466655541529
-0.04003169659381417
-0.035819506875629945
0.08501834427534641
-0.04666875502100837
0.009551367690081691
-0.06740481116521188
0.12920603797329405
-0.002717166061299725
-0.06779174698510264
0.0562049310436217
0.03046247927850623
0.053338509540312086
-0.07961422026963379
-0.08534461701159367
0.058937357398934256
0.04925143720301866
0.0182296323407454
-0.10199572408002872
-0.016299049045091073
0.02394760117515065
0.040447377615542526
0.08110324476730825
-0.015188284873084271
0.06889659980700788
-0.038868754750329026
-0.008978462743383488
0.030362155470921998
-0.05531622378163893
-0.029568330203707822
0.02506463619324516
0.022533218041498965
-0.03136191659224866
0.040113408648777965
0.018530843459608353
0.044961416170247216
-0.05313955760824967
-0.041741774953729854
0.010637991312984605
-0.036574945728876124
-0.017762429594727642
-0.0031185460164365932
-0.01475994122534103
-0.0011970030856764502
0.05852416776199807
-0.025529006235518112
-0.030267921180165087
-0.01437668210974425
-0.058365133303755506
0.004471103862877001
0.02918001439105781
-0.014898524547207371
0.07259480001770068
0.02624189874376435
0.05357346794636299
0.04693547102650911
0.024263957818123055
0.03558440381987607
0.005845476673572637
0.031278357056094386
-0.06774068972858331
-0.045472618646614366
0.0734467786906017
0.0369257878584005
0.00991069549237105
0.04264035345138239
0.0014995239733560882
-0.023689508100678644
0.007728893715363099
0.01888085868019583
0.02886774028297312
0.06095303620162254
0.004496743707873484
0.06655738958354351
0.1283872248135963
0.003626758196458329
-0.033543498750214326
0.006168327103334836
-0.0017122427836567635
-0.054241381962332136
0.010800182057198227
0.018828353297758074
-0.05155507111855361
0.035760020454752094
0.025563503409393753
-0.011310531220775757
0.024887591414226758
-0.08285335337499117
0.05028250652398158
0.02636279654365707
-0.03262725957228669
-0.03436374047371621
0.061581291272618625
0.015144248971804589
-0.0035393449747091912
0.006601492001510504
-0.007614149099108775
-0.026290576894767936
-0.024704489113470736
0.014756135203277879
-0.03980010231501155
-0.0448986672473571
0.012378776961707933
0.012975376987566904
-0.005144445027266964
-0.005688924635070624
-0.07707853328053788
0.04821476052734049
-0.053598378711303435
-0.11350018389220871
-0.07432286817497709
0.044731654705681655
0.030019652422324274
0.0016749438157630872
0.053018986150267816
0.08998605653506676
0.035746123053345874
-0.025411737993093392
0.07961900649506222
-0.040463878057549724
-0.04468341116243875
-0.04314319089988812
-0.018092612260174036
-0.008233172113648811
-0.006231279520722653
-0.014486614205207415
0.04387665005754738
0.10304538900112828
0.07721072825127824
-0.028146192620595957
-0.03167579878960103
-0.048898371652992295
0.04465399885014924
-0.013751983152078484
0.1414437036101929
0.020801051022590795
0.01206762649841794
0.06743460728890488
-0.01217161022693419
-0.042437774357264695
0.04516294453124134
0.6115900597483814
0.996465342675991
0.4481679193261172
-0.028511199221186445
-0.0018530593555015362
0.11877317416907057
-0.029440897621402118
-0.0006081138876973555
0.02609936110723343
-0.09905861121876813
-0.03176004080424721
0.050265405362058015
0.0028596741795515225
-0.04953204655784106
0.04488222255801818
0.029181172855575224
0.05282478871491489
0.04126469071604494
-0.019504987419286666
0.02887624163579386
0.07162010518613807
-0.02171039996262697
0.05991588169214556
0.20023371211567556
-0.04220057224841873
0.08541052887237804
0.003593145965213763
0.057502159903106066
0.054094197628763545
-0.01103015171503789
0.04446928035192614
-0.039800468464884296
-0.015597486811727802
0.0010942733972004778
-0.002713447160404143
0.02444883845919183
-0.0023632343699156824
-0.02723381877163853
-0.04166786185419566
0.03476518112783452
-0.031052221798732783
-0.09759222437929131
-0.008113094887490124
0.05346406200342677
-0.04065148348934034
-0.10292355450881617
-0.07044301501292523
-0.02380356520008756
-0.05704575833004999
-0.00957725671287653
0.1030099981741342
0.002621873918136955
-0.05525577766087067
0.042287246959205965
0.022512856480785715
0.037361464619578066
0.012564818145703698
-0.07258903674804404
-0.015482731209982642
-0.04456568650080704
0.06751349764258528
-0.014709592504196012
-0.08204548288588148
-0.03024404149062663
0.001927269078766559
0.11727163455724424
0.035215779434424645
-0.01782856500984842
0.02449372876033808
-0.07121229298227398
-0.011056202298067221
-0.043609172466429466
-0.0275693334466749
0.031929127998166364
-0.02398164370639833
0.03320235831609535
-0.003524689255122262
0.14369804823223659
0.05124999141400163
0.011026118575072186
-0.004690229800708535
0.01493017953292539
-0.012240343181889091
0.052702152572161355
-0.037757042351580755
0.04748667195725223
-0.009883840858375528
-0.03482548182856598
-0.0016237852466175638
0.03504615219444104
0.026278472190889336
-0.03474380438307745
-0.005940739008075082
-0.040752384511852556
0.06218098895115999
0.018212545636671143
-0.015089763203702256
-0.014219166909380552
0.021168058851416927
-0.0463635471996592
-0.037236489564656826
-0.06486470477031635
0.059077009152470154
0.06641231773597464
-0.025256004099797204
-0.10679017898032722
-0.10273192370849434
-0.05640412255026631
-0.07871423755277586
-0.0017575717264688116
0.03711199544909895
0.009182178622389913
-0.05085012036839694
0.03271397980453794
0.06759548745549068
0.018892598295114083
0.02054792799722412
0.019524248640182564
0.031534164401045006
0.023996625706611735
0.002335814367306088
0.05688156785714639
-0.009749352267045529
0.074355565409894
0.03308495255205276
-0.020732182841672452
-0.07982683339898058
-0.013508961237923018
0.011517666683060522
-0.04546919334519902
-0.0021753990077936175
0.03846560527737534
0.00925645652837169
-0.0588350168425162
-0.0021551012176401637
0.07727241477298606
0.017959101825305912
-0.061916334191412084
0.06946919079305573
0.018536044573575085
0.030100077526678676
0.021086849177128553
0.11300241589478406
0.023850272315453506
-0.002416531145960607
-0.10406848743832225
-0.07472619778763955
0.020648013235232993
-0.04359642683702456
0.03720649328060308
0.05945391420214169
-0.0005237195557817432
0.05345310441418161
0.06608484357860994
0.05835173334695665
0.4742223103955974
0.9664369559353907
0.49758177182501095
0.14252127691626246
0.049051335239806454
-0.012048637743606438
-0.013606371368262205
0.05822124557378231
-0.012920934101714071
0.053676321563709994
0.07331499412499486
-0.10428460577519193
0.029267140423865315
0.0046573384699020405
0.0054883978810316095
0.04389530541358297
-0.04172090239560328
0.061883158564672705
0.02346011946149961
-0.041157764413185305
-0.06019080265167162
0.010115360230947756
-0.03473283601764324
-0.05734008601732669
0.033925938418247224
-0.01809166362430196
0.00528199013525888
-0.09239733350236425
-0.06798767076741906
0.004210607098504742
-0.10370103462625878
0.018370599124991224
-0.04882204935478757
-0.03211187139586894
0.021413429651885203
-0.026520989878384152
0.037738292304759266
-0.006063661618795952
0.10373800832907819
-0.007821772748328093
-8.07052174161808e-05
0.07276298377853463
0.019073863226251944
-0.05575433056477841
0.1400955685375422
-0.060533851196924095
-0.006879220139615925
-0.026863982383295196
-0.002210537130217776
-0.0006067139273993681
-0.02000945951738672
0.041012619522561945
0.06742089995089516
-0.03690289951599184
0.009336051824404154
-0.07587936702028249
0.041783163386180135
-0.0065484219211422645
-0.00457105808844296
0.007517811471780146
-0.009031307095428086
0.060600558137174326
-0.02388153611937462
-0.04447873721655851
-0.03200337490569187
0.059734445333406196
0.04048376030989622
0.06689902950682867
0.032635498995119146
-0.04738528245050393
0.023761197610463664
0.021104878953744632
0.05085376790880798
0.056492614342499615
-0.03257994365693807
-0.1342710880670686
0.002558536880453412
-0.07619652976494118
0.0025392710739101133
0.006140421317763199
-0.07425254029461167
-0.02566001199773428
0.06855337599671982
0.0036285891751960523
0.02079305706539071
0.06977875927608927
0.04555283398114469
0.002295903192431745
0.019513824328673383
0.05818566093081994
0.062116156221678015
0.05904913352797414
-0.05909258158247663
-0.04226882860640075
-0.029356213400368848
0.006355522900727839
0.03693886597507942
-0.00589134501246546
-0.029366010915149537
-0.025730068234942012
-0.011933566610100024
0.014723419688970075
-0.056465340749693387
-0.0030677310100341985
-0.004125604047432488
0.06462615620718053
0.04737445318768109
-0.01678647111869078
0.0028780257089128674
0.06751142502695957
0.030460306768092794
-0.03632712639502963
-0.02106933214903285
-0.03847739651867505
-0.10721696172115568
0.020439584676076872
-0.0349086610762174
-0.052553400341899204
0.03131328473278053
-0.06215402351825725
-0.03670716583340438
0.028017072504049806
0.08621613860111906
-0.034230832670012916
-0.050527311970976756
-0.0013940386309947558
-0.055424002035930786
0.050743733222660826
0.008880109507697123
0.00650322962330087
0.023942124100162946
0.058259245992628966
0.022321831386970088
-0.020111700704335034
0.00577151797730376
0.10454050753053937
-0.04114298323723905
-0.01037448695233728
-0.0067865972205809815
-0.008135778572417261
-0.03917081746449973
-0.08523630434585598
-0.118908135397575
-0.07647665733550377
-0.042972456702137694
0.08886794400526637
0.04815854896497903
0.027806778906601482
0.014080656131390624
-0.02062060956159136
-0.000379944566370752
-0.043056130243184734
0.027971486096353967
-0.017778605971574477
0.102802239839783
0.5357935729975215
0.963391569537261
0.4679622593682767
0.08830559464036553
-0.032244358045822395
0.07697442581049899
0.09219372300443228
0.02250829952442123
0.04380970626055357
-0.008413917544672973
-0.06875683562038036
0.052066498995318136
-0.06624529727855995
0.08411609146268881
-0.04523584394145046
0.015582467331767725
0.020168129992518744
-0.0936997839139262
0.01770818743563318
0.0195558107845275
0.08200734832294872
-0.006528199973724226
-0.043543785095043835
0.013521022560150683
0.036085370225360285
-0.04151351648089463
0.06732449543894828
-0.0016145580449361135
0.07141400963687577
-0.0029120936487263445
0.023577732466644873
0.015589157280860489
-0.016232623032642748
0.039379332576320585
-0.023756667591478722
-0.03155915869419408
-0.016618358659497064
0.07919390112759843
-0.024490119846158353
-0.03863667132792521
-0.09447085636791784
0.05819926280289137
-0.032647196338568545
0.05429689795990611
-0.007001299315878395
0.052551082160591546
0.015825045522684465
-0.04981592938228387
0.025448577008961304
0.022586116484641004
-0.022975433340680092
-0.023256524419642086
-0.08223115042825684
-0.020631574117768975
0.047658281705938985
0.0428284381194185
0.00786440182498254
0.0449755439770689
0.06495420131944332
0.06999031485386083
-0.0031375931033648602
-0.00567928328578803
-0.08575751439733972
0.003913992252718347
0.025987262624572884
-0.02196038963680111
-0.002303371179789858
-0.0007744344748776321
-0.03998260030742007
-0.03400216034662558
-0.03850408977434398
-0.03834773373262276
0.047908883725315946
0.011266846921850537
0.008570488993942844
-0.018355860233871837
-0.15032520838966582
-0.06275365174445674
-0.024802246733736003
0.08164667997907578
0.06601524438600724
0.03640087308672943
-0.016982460066068995
0.027195140164897293
0.029066217374460135
0.01390759519160899
0.08279957432405635
0.03763052031287818
-0.11999005945623141
0.12519042061235405
0.03351693109820958
-0.04669328443859778
-0.029706698327643125
0.11505378546963962
0.02243871535265272
0.028465402045709094
-0.012989238317971242
0.0152473338431731
-0.03408541788378585
-0.0828943229365955
-0.00716219304676998
-0.026668163468147106
-0.0003616758392446709
-0.014073980662962372
0.07108600359594601
-0.0006378237716039388
0.050967628365095025
-0.03165430613502944
-0.019390559187021622
-0.029763722307217945
0.010814734877158517
0.006543612976838459
-0.026048096225819734
-0.05124740560005391
0.016048877415355798
-0.06130387426146666
0.10804015969980518
-0.04543172118221121
0.11765306972074095
-0.013547917626142754
0.0046440827253234705
-0.026810390525075334
-0.01781855333321041
0.005767721431373897
-0.009599598917014996
0.036525175206772925
-0.0011425221413469912
-0.03352357939739447
-0.055759294342755096
0.0017373934697518516
0.023126696033971682
-0.0448332162802455
-0.07434214515785721
-0.05009000187828888
-0.030890800318090314
-0.020359276377423033
0.03836467743596735
-0.03869329780842684
-0.05583240519551161
0.007096057530701753
0.04395890043888229
0.0007355937308729209
-0.03498965763925668
-0.069706879997322
-0.04712821550547505
-0.11886927446663807
-0.051689030402336994
0.03807006312056696
0.1245763412159166
0.017420016260347098
-0.022815514773313172
-0.036872482953874304
0.04289746583867614
-0.012076514068796049
0.019991095059413242
0.050137859834614544
0.019506035451987765
0.004712706075899821
0.030243145705617452
0.0066999934024239115
0.06925731186752905
0.5315879493323886
1.0273848684165363
0.44355067925476777
0.011859733621920082
0.04632396027986807
0.0652931866129182
-0.019691213448351282
0.027243590053984326
-0.021628321398154793
-0.0017397287764768232
0.048216803227982934
0.035176859241804435
-0.08946423060320652
0.034050424857032295
-0.023456000438903904
0.03281055267266246
-0.07319062900336676
0.023995784675216944
0.021017430992609817
0.03412123202381704
-0.019506450629065978
0.03931224303148815
-0.003915575668278512
-0.0619698077464567
-0.0836619925262147
0.0768525761229061
-0.0545261643976162
-0.01996679631415693
-0.02431816769306804
0.1171323817171748
0.00413112576286898
-0.12143764576645742
0.06823788000607967
-0.024686161743278822
-0.0320337189444566
-0.035691134068703896
0.016495849715389515
0.0942624425183954
0.0283897558961637
0.04313015141806922
-0.012164985313887502
0.008118652218272583
-0.016612592621411564
0.09311392421139812
0.08410102628225896
0.04082197254782971
0.037821997251268044
0.04390057262108964
-0.08326734868786934
0.040571047319184504
0.04256136446176783
0.004106578708882473
-0.09963021020906888
-0.062076737384980096
0.013017769235721325
0.05454542065719106
0.06908087705122001
-0.07187573159381129
-0.0893417917088816
-0.009167646230722856
0.02950738696611237
-0.08961952412474083
-0.014857980607362185
-0.016628567786476547
0.11476177521852865
-0.02824981654377101
0.017896827049340272
-0.08400388983639673
-0.01424098296566216
0.06294496120286185
-0.04280266462684856
0.04031745229223509
-0.10127378298463313
-0.043507322780506244
-0.030261584788883272
-0.08948390654220824
0.0710705454607679
0.021054834158023072
0.054564851085497794
0.010985308913633245
0.005548518602077848
-0.021703047713872152
-0.006077076545615565
-0.032355990938503845
0.023522230323008934
0.0705210095217525
-0.02858773415047392
-0.05916863171904364
0.014348698286265447
0.025473286522015682
0.06410978657773263
-0.004897046652136402
-0.029787706153331008
-0.06900384083066462
-1.0368988322284804e-05
0.06114065971393559
-0.023153052874898168
0.10865749586053955
0.018028039695495834
0.02206771218994104
0.08231518551855324
-0.05116636105665045
0.09341257083118827
-0.02825069514295206
-0.0021617310171318173
0.035783493316008476
0.08986014449495032
-0.022918037295837457
0.034375915280649046
0.11273997307338131
-0.16436142687082275
0.028307127886673535
-0.045523381813770886
-0.08996630225568814
0.09488300703700164
-0.013749873869988863
0.019019875407633932
0.013814701921522602
0.09153469696573192
-0.06723732789245644
-0.014462900449556785
0.00028861137234096365
-0.008465246102814123
-0.047614410650538924
0.005361591075544584
-0.05641710903069145
-0.07227285312615112
-0.030784784985283344
-5.968884374188849e-05
-0.0643082216023924
0.07662854262605331
-0.019697542359493416
-0.03458485978346757
0.0199777581362547
-0.016803838059428314
-0.06197721000938568
0.03527702530638918
0.0008484219642559149
0.024672934711394715
0.03836419805276501
0.08746632335166148
0.08967918241692056
0.06589072384988474
0.022007079581929528
0.004923855418281508
0.05083582863636082
-0.05885208363057495
-0.07350141019458949
0.022333072661965277
-0.06369464229482096
-0.03480140218978991
0.059224048446915825
0.005818748624332917
-0.019621014964341307
0.134999654918905
0.5150857734687385
0.9741157862566483
0.3976285197504864
0.02235424762125196
-0.0392192773317399
0.08852418515421903
0.02662443058578089
0.034688578115871414
0.004935592396787685
-0.062227810882741985
-0.05492771855030293
-0.0004614745177502779
0.009899845127212746
-0.07263368606476876
-0.0842660190639307
0.04312061384384843
-0.023607744476213246
0.04348761252744727
-0.00197925642938543
-0.07728053287801318
0.04228834973789131
0.024324984734152035
0.04959861116264618
-0.005094859127956219
0.0739541833662009
-0.14291031523977168
0.012538429130954324
0.003408366399989462
-0.056596576220411546
-0.000475484596689998
0.07598472830200081
-0.05914841568104963
0.023446437763080412
0.009379374925196228
0.02604173378467352
-0.07306297592375464
0.046362663934922416
-0.011383959328086966
-0.025171412527090153
-0.02234852031099761
-0.08608590564500612
-0.041918256714578356
-0.010261575997289047
-0.024233064789803513
-0.08115488209755713
0.042012128526551965
0.05522472807895913
-0.020676196770412297
-0.042491023587964624
-0.09440774895523084
0.001930048170504045
0.03260935879345677
0.011838742922826676
-0.013055412915661598
0.05178927922315955
0.07275393492005977
-0.034856814397660855
0.03855779456682326
-0.06974877576735238
0.025838920223912928
-0.0375657696082274
-0.03688435634696154
0.0017008074124255134
-0.11442665675929176
0.08780395293633088
0.06464942738649236
-0.06368335898203291
0.047154268679240816
-0.04658173075750783
0.053648389107569444
-0.014920501863204483
-0.016696199219434976
0.007430445205906043
-0.021067454625734644
0.0045313971124812035
0.03512629589198471
0.010199600272207232
0.047252650647941596
0.0012190216489400638
0.016673251982916023
-0.1026708434872816
-0.06149423791866489
0.09614911581851296
-0.039863634825526365
-0.08952901567963562
-0.009093801338111178
-0.05262592062151346
0.07724735559832244
-0.007718205040403898
-0.0581610533019183
0.011441645801923559
-0.0368535484741398
-0.03826243415450625
0.06868262851969568
0.04808870391020237
-0.013591998998620847
-0.026867289896166647
0.015586416527741287
0.02293070901466391
0.013120753102721403
-0.020837521309525077
0.044909828943183225
-0.056096311140188676
-0.06379619382192919
0.06694085162728317
-0.0244276809696607
0.06755815942670151
0.03236827172566658
-0.056747880036381475
-0.050014625849190114
0.05827562032816294
-0.03413219757681143
3.29568402432789e-05
0.024992787119959586
-0.0924714004345556
-0.03175207185516628
0.040464464990319235
0.015485358941931246
-0.0381357255002035
0.1268232441919155
-0.020178794387401364
0.05798203260251864
0.011670040284749652
0.011672437049279684
0.00988010151252521
0.0005714500535881919
-0.11142521652666187
-0.022443492479411766
0.03530906336973071
-0.09378450206660403
0.02231082272419532
-0.004925783465242741
-0.015537238044135494
0.0052580206843993865
-0.03101780482976852
0.004650587698322078
-0.01941220073717917
-0.05977906795802993
-0.053563555281844435
-0.06226642800472137
-0.12435911636507287
-0.02723909165078079
-0.10060718676804921
0.09569184240173971
-0.009411474380195744
-0.0634856381784045
0.012094324351910553
-0.0324277843217538
-0.05114706392511558
-0.02846130502200613
-0.09550285680586504
-0.028542332659677677
-0.020704736483809626
-0.08529051823969759
0.06285183278145295
0.47068046225380356
1.0227474269391188
0.5089583048650237
0.09006625930672406
-0.02833240389010093
-0.1098459765154739
-0.022693717929514388
-0.04589585586758
0.020087547344265544
0.036905179968536116
-0.036490696898361354
0.05497444675301849
-0.002922759390205207
-0.0211348057922731
-0.012015946672681613
0.01334005944733132
-0.009895454119504085
-0.09373261575814426
-0.05426083779514121
0.09492692627221881
0.03508162015891773
0.06956510981261538
-0.05558336022136589
0.030009446253502943
0.005816373969662803
0.013982643625228254
0.014041535035052906
-0.015294669210570676
-0.027825737461125478
-0.017269779429618503
0.012476836421767029
-0.04526616811488924
0.024497450204160175
-0.0015475192565994242
-0.017081777997148568
0.026724963705276796
-0.020132742700657652
0.07755270605144242
-0.06133439338810254
0.022851407610594933
-0.059237431815959564
-0.0470958960580266
-0.07616369560472591
0.008972934649913148
0.021641596191589202
0.08410351858169296
-0.013199014716473759
-0.033654245322804865
0.056325109999526723
0.0023152294255115785
0.033247277377783456
0.08723762592563972
-0.03915162411004381
-0.014042712762917523
-0.00897258684171518
0.004629186624860697
-0.020443405494633506
-0.03301292794338549
-0.030883342936874197
0.008886540677178206
0.054190578578580145
0.07557536512706627
0.00965995250890387
-0.005324153953365704
0.006893941821563925
-3.446457703492477e-05
0.06255796845603866
0.03282168555187517
-0.12736858326508896
0.011101923133883005
0.06137367442072485
-0.053284712175354125
0.007313566410398157
-0.0517742981776835
0.040445129549082366
0.017132175385706674
0.03011824179363619
-0.022441937712053488
0.004274395014271836
-0.038863584508404395
0.03990009270841338
0.014683154682434228
-0.07894415761402114
0.0979330955102038
-0.05386946736155678
-0.045740280614086665
-0.031375562704746
0.023140113770613324
-0.04073331277195285
0.01926852216328441
-0.08194214767498004
0.009099512786681098
0.033523952240611624
-0.006222591917624317
-0.06560614769808258
0.008863149715789867
0.015200005503262433
-0.02139922248723583
-0.09860672377032804
-0.08255935767862975
-0.02238993022599562
-0.02898518540103878
0.01533242518194867
-0.010545790076064938
0.0060120577991753755
0.032853706641001346
-0.012005926479003788
-0.008106135098592033
-0.008035340072364448
-0.04977642500085655
-0.031857476713078196
0.04015211700410916
0.019905564814558373
0.01836524297660119
-0.020024474273680246
-0.06328018986643948
-0.026295036270845562
0.023327415861052095
0.010216421388200829
-0.0505601759329662
-0.029837884235703344
0.0540659076945781
-0.08822240482574034
-0.02956857077913453
0.0750619552231391
-0.009398687644921577
-0.11626374555249247
-0.015173972285771312
-0.0421164256800014
-0.010552787375719231
0.051660169169803274
-0.054773998862244246
0.09719696637257265
0.0625820740106972
0.019238478843570026
-0.044200840097391336
0.06925688510676047
0.009572848956144193
-0.030425355782127125
0.02641221225984179
-0.016737352114736617
0.03297099334977798
0.00212127434103195
-0.11518505306278706
-0.0339446300883239
-0.04118618582118096
-0.03648269557653551
0.07050694074993268
0.0053046439412551185
0.06532395801791042
-0.07217320148011051
0.04041271503488404
0.01588926349871619
-0.006765951986402717
-0.05955516815241311
-0.06336984843038919
0.0002784481181603982
0.12177563088374899
0.45046798793818865
0.9828280274776985
0.47231874660027434
0.06356937024903102
-0.0594530833829256
0.022211268550673884
0.0068477613904350506
0.06597812482940768
0.07032605267774515
0.038663965189737665
-0.05624265742353496
-0.04962251695816831
-0.11819140143432337
-0.010157096816577125
-0.0634474909104138
-0.0390310711561256
0.05521714724769762
-0.03942883907411516
-0.08816057812369642
0.061734090181188396
0.033914400250970735
-0.01654638901437889
-0.007122501003153165
0.1052605016349332
0.015574067752891994
-0.06493280290932534
0.08259803666800197
-0.038335827671970774
0.016233381370838292
-0.008282362929116056
-0.12350049412478657
0.009667443951898808
0.04349843415105145
-0.030271356996674877
-0.042311828545124046
-0.057884154660835754
-0.015466604421265507
0.012921399590202963
0.09424151711258394
-0.013906349441109793
0.04564113328684296
-0.014956242942257003
-0.03564506346690676
-0.03896010714207709
0.007094684544893062
-0.01451994553133611
-0.01282732248697899
-0.0318095304289888
-0.07001590295863745
0.005810666739316104
-0.0072214626936479885
0.0024621901935897687
0.0550580505345353
-0.005681776494713566
0.005309551493639677
0.03290204426436908
-0.07674719313052047
0.034307650836951864
0.026920848719856613
0.07509245811500287
-0.013953504082812433
-0.03322456613189116
-0.056645423374866125
0.08384964110007778
-0.05912522631407285
0.0028389108033998398
0.01154835417518653
-0.04148420099523626
0.014677560622694
-0.049401075882784876
0.013390806678484647
0.04868507973564753
0.04423557521804563
-0.054355179643988984
-0.08029418563383174
-0.0104194224292464
-0.020277606602844875
-0.03646219472643888
-0.12819737361413563
0.00150209273634063
-0.03343007216670158
-0.007990315460327004
-0.028317626250699342
-0.029699091230985516
0.02562871899360597
0.0604268641427319
0.024191197661515406
-0.02001898929991242
0.028085156585448124
0.04082206282166069
0.07502560094130942
-0.0028369231599209305
0.01039948632047813
0.05964220496847811
0.022162680119225335
-0.08807311532901924
0.0006212448107343642
0.12217341688225075
0.001205178062252247
-0.029877472198135947
-0.07723705641858866
0.049566073134198134
-0.06890954859672074
0.07838789278019509
0.05241939644513183
-0.04820617503340321
0.10239533159020463
-0.0915796388497787
0.05330797972087153
0.0893153232010554
-0.016032839625850347
0.09585004155313798
0.02163773350704095
0.02778735792850895
0.04888225102106022
-0.008831060573632322
-0.0484347095767454
0.04084325863690502
-0.04979520023091338
-0.0007617974996985339
0.005716868234453008
-0.07416822198288646
-0.0537135454804533
-0.0010720189492029136
-0.003913384008299645
-0.0055047586061633905
-0.03322993206550467
0.011575330626473819
0.052710327354380415
0.05376911897309329
0.01743066678297231
0.0658890110725919
-0.002754142144590171
-0.009227200971719111
-0.022140224355652705
-0.0008116774515283039
-0.01574548196713883
-0.1107307926409476
0.030731159291829763
-0.014800525212323657
0.021701734971779088
-0.0048066705974780894
0.009828412627262927
-0.010296952394897493
-0.006605798538924826
0.008795003445466182
0.018636096849211595
-0.00944254457185168
0.07636435725878539
-0.06381480606207375
0.055825878429067166
0.1008895691806922
-0.08596261221360779
-0.10815937927312164
-0.02691740723725985
-0.003854709729395946
-0.1606227691860117
0.019695571959347208
0.532725592752773
0.984978747578871
0.5643273338140584
0.05724834174621558
-0.10085405242748775
-0.026704149719700074
-0.0021916798408560946
0.03581621756294491
0.03711270606145663
0.03282512587898923
-0.009882720345552766
-0.058972017157973816
-0.022691295148710197
-0.039829042872160075
0.032773299534822366
0.04937069757255205
0.012064796424861982
0.06976197846758994
-0.03608295962801133
-0.0022122024450525407
-0.046492059008674924
-0.0320213893659236
0.06471855475566947
0.026980123771611665
-0.021207490559227535
0.007834406369865193
0.03917462357752726
-0.053349884697886846
0.04146362468476292
0.014173713441904396
0.01585055955396382
0.03368186064791124
-0.05046529999853573
-0.0161778421276244
0.10725450438785791
0.04568147604901786
0.07081468874551727
-0.05654611825112269
-0.016002909009376187
-0.06282682403916977
-0.027010653384074424
-0.03232092500433554
-0.0004897285808051968
-0.08975552617250288
-0.07333776047824463
-0.07657535815322547
0.07726632338658063
0.024472130441267337
0.09212092523192307
-0.039018728768766955
-0.025754218457119945
-0.0468876109124589
0.0266897811570377
-0.03911904626149038
0.10091591233827801
0.010248364559281846
0.12839131784848362
0.016818539123762296
0.0001756413491272869
-0.1072437593254943
-0.02272170213349675
0.022030052910544575
-0.03107803043152938
-0.034773500512330836
0.037104388546735416
-0.000594854113266342
0.08424009679479073
-0.05241517601009543
0.06302368233299632
-0.031189927422037578
-0.05544356303715427
0.0951050376282175
-0.0521651106702585
0.0028913791584012785
-0.014809343053998968
0.09669843184029174
0.09978092895186662
-0.02392734777173379
-0.014372426071174577
0.03791548727340291
0.013038925755410928
-0.04724848123077689
0.04156312642116635
0.04239040147320263
-0.04669919243325785
-0.035344057676080155
0.1234944015622504
-0.07477472724203593
0.027615514367413465
-0.07195870046832133
0.03875842434659356
0.013959622469850178
0.010051102131509138
-0.05801559723698844
-0.020877456691331134
-0.010689777905792335
-0.023256291035322542
-0.02264301724838594
-0.017347398570307305
0.07026625279897597
-0.04794900882108663
-0.030256233467557098
-0.034406053124242664
0.029733730800593577
0.009239366144308887
0.1054514345789023
-0.05280635443495557
0.09218509419843171
0.08074492129243506
0.025247177268261357
0.039585863876628345
-0.038246048964728704
0.02287730622219039
-0.03274009913682602
-0.032014520728280885
-0.019091317847752694
0.08598044626461682
0.0011394698860587753
-0.06555925412188433
-0.010398888246411563
0.060921375424174376
-0.027326580450551016
-0.04276920844292091
-0.08417289237423708
0.00039074558199173005
-0.1299810695501049
-0.03886461750614025
-0.021767992993365497
-0.08699255684242474
0.02180790853269734
0.13144878081343542
-0.0405076772856912
-0.01447514237484848
-0.07689735534084037
-0.03431298139506262
-0.14763812182516978
-0.0455517266387637
0.0032198527731312834
0.0002806645648952731
-0.016017294717743203
0.06096858034487615
0.028289413269358694
0.007341529322621074
0.04384670807877919
-0.013367080903206706
-0.02420915968179413
0.025085698137642172
-0.04985682536351565
0.005569029320922012
0.02210594494539704
-0.0055008520363555
-0.027508491360104543
0.03190623501832045
0.04616073414822146
0.014918676662806152
-0.020325271397863557
-0.0009478690005926449
-0.07696794479355251
0.13598227141418542
0.4830201144225273
0.9993057241528611
0.4288691981997297
-0.044334651201464625
-0.07574499400379991
0.017843354092694785
0.007337940523273832
-0.012570109730390206
0.010034073323074691
-0.045656051085649595
-0.013910714140875953
-0.018682288020348867
-0.02628095615469249
-0.04960716256490702
-0.06276750059584399
-0.0022520597010623204
0.0026687468101929427
0.015555084799465475
-0.1288809023786086
0.06984068879146638
0.0349372605599254
0.05245783994000774
-0.05677190210711202
0.0997014543307902
-0.004460300273414233
-0.017139844079154115
-0.07673823335240923
0.06631499864929895
0.06492091028649248
-0.058431062874323786
0.05244390630311117
-0.01256688579639815
0.07424540431226848
-0.0029116876247532136
-0.0676238933677466
-0.07940468868735398
0.01823390048936212
0.06015245209086896
0.028509453653730477
-0.0791371470909018
-0.008368369023977725
0.03510824439874791
-0.09355213468589618
-0.037474354734244326
-0.07973793764125403
0.0003847352387569059
-0.027038964855866723
-0.00392396787404833
0.022640606605396376
0.05087353012660189
-0.07493649823228048
0.04506822197268206
-0.045922745113690835
-0.021585521273696538
-0.0051721919108057264
0.06023222428447478
-0.03157986209640467
-0.05857862399241268
0.008083781367353042
-0.004726401026500095
-0.054908198709953795
0.013155703841802029
0.03588981757414397
0.007730630555078614
0.0028301291234448826
0.0891250933493808
0.060510263178703186
-0.004707276307091894
0.03285736159626686
-0.005890950668115054
-0.03448828478454202
0.060068784850769
0.010997603193331552
-0.04227365275140804
-0.012615003067920422
0.05927443848638343
0.051873104423321374
-0.003718497528506676
0.03133280751404489
-0.04339460963428718
0.02227514408268464
-0.10269761954686613
0.0017231640516802188
-0.0648230168746758
-0.0474588886287985
0.01618041116591644
0.07583410182846312
-0.036873283256293736
0.0533510369998114
-0.027059077286106483
-0.02819145670796282
-0.03199057251840827
0.04692632153715687
0.05564960592962492
0.012407696286244663
-0.010189946169094832
0.03618515329079891
-0.015336121276204732
-0.017738774056186995
-0.03440242751764861
-0.07461505725989369
0.006376236835816104
0.01942687278428929
0.08737551442124458
0.01552486171985647
0.029619913479397037
0.035439732877339064
-0.05779274744932631
0.015308819242989193
0.011419951811571315
0.04715062556644436
0.04306167057236975
0.08298293949874258
-0.04838211352036495
0.0007363128082873465
0.004021121270132474
0.05464252184519262
-0.0730186669304629
0.013149448293708791
-0.060733398706184785
0.08583036634028864
0.04630506931592434
0.003026887139442389
0.08155031534179162
-3.7139384681840504e-05
0.14909214099558069
0.019847380510248026
0.037426509711255905
-0.002853587314441571
0.007624334011355077
-0.022234978539770175
0.037862613057792996
0.015107243903134443
-0.007874459946685506
-0.009196234704780834
0.073018598920836
-0.017484322613792368
0.06514541629099055
-0.07234939018971918
0.03609245810710886
-0.005540242268523515
-0.028474428821189987
0.04349059401099721
-0.040655918457384636
0.04535579126815059
0.01012605824289147
-0.06267934668171776
-0.013386810892497276
-0.009167095129613194
-0.05942274156799115
-0.011558585735282558
0.024344566030001482
0.15543162963559562
0.5168418899469228
0.9855754213277295
0.43233656583722546
0.11984345256459539
-0.0344539253367805
-0.01838346637310349
0.021567602195949095
-0.07829834829375404
0.11420980407448596
0.027518937568212033
0.04949643175596906
0.05323857560048656
0.02505257317069199
0.07877586042633913
-0.05882032006906575
-0.015731831361248425
0.0004348194450256612
-0.01655534565848778
-0.022044102727207273
0.01701239415644669
0.0858215778291217
-0.07931275135765059
-0.02551784601732345
0.004893805593811379
0.08463430687571827
0.043519064750117846
0.011067007131019282
-0.045321667962823706
0.05189250201207403
-0.1087101333825804
-0.11554217596652279
0.016504337293221042
0.020643811191436337
0.005850679463291384
-0.0013317506910176637
-0.022461594110489133
-0.05327111444834536
0.052041642957059056
-0.07020463457804295
-0.009317378072215941
-0.04599817963455716
0.007360670867217455
0.03104357336313997
-0.03247284988421559
-0.07330038893731065
-0.03237548855020615
-0.06765576667946321
-0.00504818948779294
0.06768329217206939
-0.07357873737404506
-0.03950290959211662
-0.0012282558132459033
-0.056490824338078276
-0.06390064495324288
-0.006676035235845316
-0.032324147926344825
0.07646961050910124
-0.015210178404814473
-0.03099959186922845
-0.019768516177816997
0.04350445233670289
-0.015519861069513806
-0.0017863828743811712
0.008410602809652478
-0.0514517015320529
-0.02625656358981565
-0.0637676850811807
-0.008533759779412864
-0.02891167552695639
0.02608643016107473
0.013027651457783071
-0.04247523308430701
1.019670824790302e-05
0.10929853891216934
-0.035060337858985526
0.006441399389841316
0.10162303997449312
-0.11169610995548028
0.037232662936970015
-0.07845891045613078
0.013962044676552194
-0.05852265065341758
0.043008537114762255
0.03415658073829692
0.03732527673391785
0.06615329923392442
0.038768062093364475
-0.008324909080229809
0.08978470014300542
0.06032204305118316
-0.001879256199930609
